B-10(n,g) ENDF/B-VII.1
Energy(eV) XS(b)
1.00000E-05 25.1500
1.25000E-05 22.4948
1.50000E-05 20.5349
2.00000E-05 17.7837
2.75000E-05 15.1660
3.50000E-05 13.4432
4.25000E-05 12.1995
5.00000E-05 11.2474
6.25000E-05 10.0600
7.50000E-05 9.18344
0.000100000 7.95309
0.000125000 7.11345
0.000150000 6.49366
0.000200000 5.62367
0.000275000 4.79588
0.000350000 4.25109
0.000425000 3.85780
0.000500000 3.55672
0.000625000 3.18122
0.000750000 2.90404
0.00100000 2.51497
0.00125000 2.24946
0.00150000 2.05347
0.00200000 1.77835
0.00275000 1.51658
0.00350000 1.34431
0.00425000 1.21994
0.00500000 1.12473
0.00625000 1.00599
0.00750000 0.918334
0.0100000 0.795300
0.0125000 0.711338
0.0150000 0.649359
0.0200000 0.562361
0.0253000 0.500000
0.0314750 0.448149
0.0376500 0.409656
0.0500000 0.355348
0.0625000 0.317739
0.0750000 0.289985
0.100000 0.251039
0.125000 0.224470
0.150000 0.204862
0.200000 0.177348
0.275000 0.151180
0.350000 0.133964
0.500000 0.112029
0.750000 0.0914223
1.00000 0.0791439
1.50000 0.0645861
2.00000 0.0559119
2.75000 0.0476618
3.50000 0.0422342
5.00000 0.0353190
7.20000 0.0294183
9.40000 0.0257375
10.0000 0.0249514
15.0000 0.0203618
20.0000 0.0176271
27.5000 0.0150261
35.0000 0.0133150
50.0000 0.0111349
75.0000 0.00908670
100.000 0.00786632
150.000 0.00641938
200.000 0.00555723
250.000 0.00496907
350.000 0.00419776
450.000 0.00370085
500.000 0.00351044
550.000 0.00334665
650.000 0.00307779
750.000 0.00286473
850.000 0.00269050
950.000 0.00254458
1000.00 0.00247998
1500.00 0.00202381
2000.00 0.00175201
2500.00 0.00156658
3500.00 0.00132341
4500.00 0.00116675
5000.00 0.00110672
5500.00 0.00105509
6500.00 0.000970323
7500.00 0.000903151
8500.00 0.000848222
9500.00 0.000802219
10000.0 0.000781854
15000.0 0.000638039
20000.0 0.000552347
24000.0 0.000504100
30000.0 0.000450748
45000.0 0.000367837
50000.0 0.000348912
51000.0 0.000345465
55000.0 0.000332632
65000.0 0.000305910
75000.0 0.000284733
85000.0 0.000267415
95000.0 0.000252912
100000 0.000246492
120000 0.000224961
150000 0.000201152
170000 0.000188918
180000 0.000183581
190000 0.000178672
200000 0.000174136
210000 0.000169929
220000 0.000166012
230000 0.000162353
235000 0.000160612
240000 0.000158926
245000 0.000157291
250000 0.000155706
260000 0.000152675
270000 0.000149813
280000 0.000147107
300000 0.000142105
320000 0.000137581
325000 0.000136516
340000 0.000133463
350000 0.000131537
360000 0.000129693
375000 0.000127065
380000 0.000126225
400000 0.000123020
420000 0.000120048
425000 0.000119337
440000 0.000117280
450000 0.000115966
460000 0.000114696
475000 0.000112865
480000 0.000112274
500000 0.000110000
520000 0.000105600
540000 0.000101200
560000 9.68000E-05
570000 9.46000E-05
580000 9.24000E-05
600000 8.80000E-05
650000 7.70000E-05
700000 6.60000E-05
750000 5.50000E-05
790714 4.60430E-05
790714 4.60429E-05
800000 4.40000E-05
820000 3.96000E-05
840000 3.52000E-05
850000 3.30000E-05
860000 3.08000E-05
880000 2.64000E-05
900000 2.20000E-05
920000 1.76000E-05
940000 1.32000E-05
950000 1.10000E-05
960000 8.80000E-06
980000 4.40000E-06
1.00000E+06 0.00000
1.05000E+06 0.00000
1.10000E+06 0.00000
1.15000E+06 0.00000
1.20000E+06 0.00000
1.25000E+06 0.00000
1.30000E+06 0.00000
1.35000E+06 0.00000
1.40000E+06 0.00000
1.45000E+06 0.00000
1.50000E+06 0.00000
1.55000E+06 0.00000
1.60000E+06 0.00000
1.62000E+06 0.00000
1.64000E+06 0.00000
1.65000E+06 0.00000
1.66000E+06 0.00000
1.68000E+06 0.00000
1.70000E+06 0.00000
1.72000E+06 0.00000
1.74000E+06 0.00000
1.75000E+06 0.00000
1.76000E+06 0.00000
1.78000E+06 0.00000
1.80000E+06 0.00000
1.82000E+06 0.00000
1.84000E+06 0.00000
1.85000E+06 0.00000
1.86000E+06 0.00000
1.88000E+06 0.00000
1.90000E+06 0.00000
1.91500E+06 0.00000
1.91545E+06 0.00000
1.91545E+06 0.00000
1.92000E+06 0.00000
1.94000E+06 0.00000
1.95000E+06 0.00000
1.96000E+06 0.00000
1.98000E+06 0.00000
2.00000E+06 0.00000
2.02000E+06 0.00000
2.04000E+06 0.00000
2.05000E+06 0.00000
2.06000E+06 0.00000
2.08000E+06 0.00000
2.10000E+06 0.00000
2.12000E+06 0.00000
2.14000E+06 0.00000
2.15000E+06 0.00000
2.16000E+06 0.00000
2.18000E+06 0.00000
2.20000E+06 0.00000
2.22000E+06 0.00000
2.24000E+06 0.00000
2.25000E+06 0.00000
2.26000E+06 0.00000
2.28000E+06 0.00000
2.30000E+06 0.00000
2.32000E+06 0.00000
2.34000E+06 0.00000
2.35000E+06 0.00000
2.36000E+06 0.00000
2.37132E+06 0.00000
2.37132E+06 0.00000
2.38000E+06 0.00000
2.40000E+06 0.00000
2.42000E+06 0.00000
2.44000E+06 0.00000
2.45000E+06 0.00000
2.46000E+06 0.00000
2.48000E+06 0.00000
2.50000E+06 0.00000
2.52000E+06 0.00000
2.54000E+06 0.00000
2.55000E+06 0.00000
2.56000E+06 0.00000
2.58000E+06 0.00000
2.60000E+06 0.00000
2.62000E+06 0.00000
2.64000E+06 0.00000
2.65000E+06 0.00000
2.66000E+06 0.00000
2.68000E+06 0.00000
2.70000E+06 0.00000
2.72000E+06 0.00000
2.74000E+06 0.00000
2.75000E+06 0.00000
2.76000E+06 0.00000
2.78000E+06 0.00000
2.80000E+06 0.00000
2.82000E+06 0.00000
2.84000E+06 0.00000
2.85000E+06 0.00000
2.86000E+06 0.00000
2.88000E+06 0.00000
2.90000E+06 0.00000
2.92000E+06 0.00000
2.94000E+06 0.00000
2.95000E+06 0.00000
2.96000E+06 0.00000
2.98000E+06 0.00000
3.00000E+06 0.00000
3.02000E+06 0.00000
3.04000E+06 0.00000
3.05000E+06 0.00000
3.06000E+06 0.00000
3.08000E+06 0.00000
3.10000E+06 0.00000
3.12000E+06 0.00000
3.14000E+06 0.00000
3.15000E+06 0.00000
3.16000E+06 0.00000
3.18000E+06 0.00000
3.20000E+06 0.00000
3.25000E+06 0.00000
3.30000E+06 0.00000
3.35000E+06 0.00000
3.40000E+06 0.00000
3.42000E+06 0.00000
3.45000E+06 0.00000
3.45828E+06 0.00000
3.45828E+06 0.00000
3.50000E+06 0.00000
3.55000E+06 0.00000
3.60000E+06 0.00000
3.65000E+06 0.00000
3.70000E+06 0.00000
3.75000E+06 0.00000
3.80000E+06 0.00000
3.85000E+06 0.00000
3.90000E+06 0.00000
3.94845E+06 0.00000
3.94845E+06 0.00000
3.95000E+06 0.00000
4.00000E+06 0.00000
4.05000E+06 0.00000
4.10000E+06 0.00000
4.15000E+06 0.00000
4.20000E+06 0.00000
4.25000E+06 0.00000
4.30000E+06 0.00000
4.35000E+06 0.00000
4.40000E+06 0.00000
4.45000E+06 0.00000
4.50000E+06 0.00000
4.55000E+06 0.00000
4.60000E+06 0.00000
4.65000E+06 0.00000
4.70000E+06 0.00000
4.75000E+06 0.00000
4.80000E+06 0.00000
4.80031E+06 0.00000
4.85000E+06 0.00000
4.90000E+06 0.00000
4.95000E+06 0.00000
5.00000E+06 0.00000
5.10000E+06 0.00000
5.20000E+06 0.00000
5.25000E+06 0.00000
5.25491E+06 0.00000
5.25492E+06 0.00000
5.30000E+06 0.00000
5.40000E+06 0.00000
5.50000E+06 0.00000
5.60000E+06 0.00000
5.62509E+06 0.00000
5.62509E+06 0.00000
5.68409E+06 0.00000
5.68409E+06 0.00000
5.70000E+06 0.00000
5.70181E+06 0.00000
5.70181E+06 0.00000
5.80000E+06 0.00000
5.90000E+06 0.00000
6.00000E+06 0.00000
6.10000E+06 0.00000
6.20000E+06 0.00000
6.30000E+06 0.00000
6.30958E+06 0.00000
6.30959E+06 0.00000
6.31125E+06 0.00000
6.31125E+06 0.00000
6.32000E+06 0.00000
6.40000E+06 0.00000
6.50000E+06 0.00000
6.51581E+06 0.00000
6.51581E+06 0.00000
6.55275E+06 0.00000
6.55275E+06 0.00000
6.60000E+06 0.00000
6.63194E+06 0.00000
6.63194E+06 0.00000
6.64521E+06 0.00000
6.64521E+06 0.00000
6.70000E+06 0.00000
6.74443E+06 0.00000
6.74443E+06 0.00000
6.80000E+06 0.00000
6.88000E+06 0.00000
6.90000E+06 0.00000
7.00000E+06 0.00000
7.10000E+06 0.00000
7.15500E+06 0.00000
7.20000E+06 0.00000
7.30000E+06 0.00000
7.40000E+06 0.00000
7.50000E+06 0.00000
7.60000E+06 0.00000
7.70000E+06 0.00000
7.70500E+06 0.00000
7.70515E+06 0.00000
7.80000E+06 0.00000
7.90000E+06 0.00000
8.00000E+06 0.00000
8.10000E+06 0.00000
8.20000E+06 0.00000
8.25600E+06 0.00000
8.30000E+06 0.00000
8.40000E+06 0.00000
8.50000E+06 0.00000
8.60000E+06 0.00000
8.70000E+06 0.00000
8.80000E+06 0.00000
8.80600E+06 0.00000
8.90000E+06 0.00000
9.00000E+06 0.00000
9.10000E+06 0.00000
9.20000E+06 0.00000
9.30000E+06 0.00000
9.35600E+06 0.00000
9.35626E+06 0.00000
9.40000E+06 0.00000
9.50000E+06 0.00000
9.60000E+06 0.00000
9.70000E+06 0.00000
9.80000E+06 0.00000
9.90000E+06 0.00000
9.90700E+06 0.00000
1.00000E+07 0.00000
1.01000E+07 0.00000
1.02000E+07 0.00000
1.04000E+07 0.00000
1.04570E+07 0.00000
1.05000E+07 0.00000
1.06000E+07 0.00000
1.08000E+07 0.00000
1.10000E+07 0.00000
1.10070E+07 0.00000
1.10074E+07 0.00000
1.11000E+07 0.00000
1.12000E+07 0.00000
1.14000E+07 0.00000
1.15000E+07 0.00000
1.15580E+07 0.00000
1.16000E+07 0.00000
1.17000E+07 0.00000
1.18000E+07 0.00000
1.20000E+07 0.00000
1.21000E+07 0.00000
1.21080E+07 0.00000
1.21081E+07 0.00000
1.22000E+07 0.00000
1.23000E+07 0.00000
1.24000E+07 0.00000
1.25000E+07 0.00000
1.26000E+07 0.00000
1.26580E+07 0.00000
1.26585E+07 0.00000
1.27000E+07 0.00000
1.28000E+07 0.00000
1.30000E+07 0.00000
1.32000E+07 0.00000
1.32090E+07 0.00000
1.33000E+07 0.00000
1.34000E+07 0.00000
1.35000E+07 0.00000
1.36000E+07 0.00000
1.37000E+07 0.00000
1.37590E+07 0.00000
1.37592E+07 0.00000
1.38000E+07 0.00000
1.39000E+07 0.00000
1.40000E+07 0.00000
1.42000E+07 0.00000
1.43000E+07 0.00000
1.43100E+07 0.00000
1.44000E+07 0.00000
1.45000E+07 0.00000
1.46000E+07 0.00000
1.48000E+07 0.00000
1.48600E+07 0.00000
1.49000E+07 0.00000
1.50000E+07 0.00000
1.52000E+07 0.00000
1.54000E+07 0.00000
1.54100E+07 0.00000
1.54103E+07 0.00000
1.55000E+07 0.00000
1.56000E+07 0.00000
1.58000E+07 0.00000
1.59000E+07 0.00000
1.59610E+07 0.00000
1.60000E+07 0.00000
1.61000E+07 0.00000
1.62000E+07 0.00000
1.64000E+07 0.00000
1.65000E+07 0.00000
1.65110E+07 0.00000
1.65111E+07 0.00000
1.66000E+07 0.00000
1.67000E+07 0.00000
1.68000E+07 0.00000
1.70000E+07 0.00000
1.70610E+07 0.00000
1.70614E+07 0.00000
1.71000E+07 0.00000
1.72000E+07 0.00000
1.74000E+07 0.00000
1.75000E+07 0.00000
1.76000E+07 0.00000
1.76120E+07 0.00000
1.77000E+07 0.00000
1.78000E+07 0.00000
1.80000E+07 0.00000
1.81000E+07 0.00000
1.81620E+07 0.00000
1.81622E+07 0.00000
1.82000E+07 0.00000
1.83000E+07 0.00000
1.84000E+07 0.00000
1.85000E+07 0.00000
1.86000E+07 0.00000
1.87000E+07 0.00000
1.87130E+07 0.00000
1.88000E+07 0.00000
1.89000E+07 0.00000
1.90000E+07 0.00000
1.92000E+07 0.00000
1.92630E+07 0.00000
1.93000E+07 0.00000
1.94000E+07 0.00000
1.95000E+07 0.00000
1.96000E+07 0.00000
1.98000E+07 0.00000
1.98130E+07 0.00000
1.98133E+07 0.00000
1.99000E+07 0.00000
2.00000E+07 0.00000