O-18(n,tot) JEFF-3.2
Energy(eV) XS(b)
1.00000E-05 4.05816
1.25000E-05 4.05733
1.50000E-05 4.05672
2.00000E-05 4.05587
2.75000E-05 4.05505
3.50000E-05 4.05452
4.25000E-05 4.05413
5.00000E-05 4.05383
6.25000E-05 4.05346
7.50000E-05 4.05319
0.000100000 4.05281
0.000125000 4.05255
0.000150000 4.05235
0.000200000 4.05208
0.000275000 4.05183
0.000350000 4.05166
0.000425000 4.05153
0.000500000 4.05144
0.000625000 4.05132
0.000750000 4.05124
0.00100000 4.05112
0.00150000 4.05097
0.00200000 4.05089
0.00275000 4.05081
0.00350000 4.05075
0.00500000 4.05068
0.00750000 4.05062
0.0100000 4.05058
0.0150000 4.05054
0.0200000 4.05051
0.0253000 4.05049
0.0376500 4.05046
0.0500000 4.05044
0.0750000 4.05042
0.100000 4.05041
0.150000 4.05040
0.200000 4.05039
0.275000 4.05038
0.350000 4.05037
0.500000 4.05037
0.750000 4.05036
1.00000 4.05036
1.50000 4.05035
2.00000 4.05035
2.75000 4.05034
3.50000 4.05034
5.00000 4.05033
7.50000 4.05032
10.0000 4.05032
15.0000 4.05030
20.0000 4.05029
27.5000 4.05027
35.0000 4.05025
50.0000 4.05022
75.0000 4.05016
100.000 4.05010
150.000 4.04998
200.000 4.04986
275.000 4.04968
350.000 4.04949
500.000 4.04913
750.000 4.04853
1000.00 4.04794
1500.00 4.04674
2000.00 4.04554
2750.00 4.04374
3500.00 4.04195
5000.00 4.03836
7500.00 4.03239
10000.0 4.02644
15000.0 4.01458
20000.0 4.00277
27500.0 3.98516
35000.0 3.96768
50000.0 3.93309
75000.0 3.87652
100000 3.82128
131969 3.75261
163938 3.68616
227875 3.56047
291813 3.44665
355750 3.35169
419688 3.29620
451656 3.30060
483625 3.35028
515594 3.48993
547563 3.82707
563547 4.14547
579531 4.64750
595516 5.44693
611500 6.70355
635750 9.60084
647875 10.9918
660000 11.6025
708500 7.74470
709010 7.70268
709010 3.28852
750000 3.23220
800000 3.16710
850000 3.10760
900000 3.05100
950000 2.99870
1.00000E+06 2.94890
1.10000E+06 2.85810
1.20000E+06 2.77570
1.30000E+06 2.70090
1.40000E+06 2.63250
1.50000E+06 2.56890
1.60000E+06 2.51050
1.70000E+06 2.45500
1.80000E+06 2.40370
1.90000E+06 2.35451
2.00000E+06 2.30871
2.09314E+06 2.19730
2.09315E+06 2.19730
2.10000E+06 2.19885
2.20000E+06 2.22298
2.30000E+06 2.18284
2.40000E+06 2.14500
2.50000E+06 2.10837
2.60000E+06 2.07363
2.70000E+06 2.04019
2.80000E+06 2.00834
2.90000E+06 1.97781
3.00000E+06 1.94868
3.10000E+06 1.92097
3.20000E+06 1.89437
3.30000E+06 1.86925
3.40000E+06 1.84514
3.50000E+06 1.82245
3.60000E+06 1.80077
3.70000E+06 1.77884
3.75405E+06 1.76742
3.75405E+06 1.76742
3.80000E+06 1.76099
3.83739E+06 1.74944
3.83740E+06 1.74944
3.90000E+06 1.74007
4.00000E+06 1.72556
4.14014E+06 1.67457
4.14014E+06 1.67457
4.20000E+06 1.69428
4.40000E+06 1.66699
4.60000E+06 1.64336
4.70523E+06 1.61597
4.80000E+06 1.62325
5.00000E+06 1.60632
5.20000E+06 1.59238
5.28892E+06 1.58315
5.28892E+06 1.58315
5.38346E+06 1.57368
5.40000E+06 1.58118
5.54928E+06 1.56229
5.60000E+06 1.57247
5.63545E+06 1.56756
5.67917E+06 1.56381
5.80000E+06 1.56601
5.84015E+06 1.56123
5.84015E+06 1.56123
6.00000E+06 1.56158
6.07038E+06 1.56052
6.20000E+06 1.55894
6.40000E+06 1.55787
6.54557E+06 1.55208
6.60000E+06 1.55816
6.66861E+06 1.55281
6.66862E+06 1.55281
6.70722E+06 1.54988
6.70723E+06 1.54988
6.76330E+06 1.55107
6.76330E+06 1.55107
6.80000E+06 1.55968
7.00000E+06 1.56220
7.20000E+06 1.56551
7.26603E+06 1.56564
7.40000E+06 1.56945
7.51573E+06 1.57073
7.60000E+06 1.57386
7.80000E+06 1.57862
8.00000E+06 1.58361
8.04269E+06 1.58235
8.04269E+06 1.58235
8.20656E+06 1.58154
8.30469E+06 1.58415
8.30470E+06 1.58416
8.42403E+06 1.58794
8.48823E+06 1.59402
8.48824E+06 1.59402
8.49482E+06 1.59541
8.50000E+06 1.59655
8.56581E+06 1.59543
8.58032E+06 1.59519
8.58032E+06 1.59519
8.67325E+06 1.59402
8.67325E+06 1.59402
8.74612E+06 1.59509
8.74612E+06 1.59509
8.88129E+06 1.60237
8.88129E+06 1.60237
8.99851E+06 1.61293
8.99851E+06 1.61293
9.00000E+06 1.61309
9.14530E+06 1.61445
9.14530E+06 1.61445
9.31110E+06 1.61864
9.31110E+06 1.61864
9.45684E+06 1.62513
9.50000E+06 1.62866
9.50436E+06 1.62856
9.53604E+06 1.62860
9.74540E+06 1.62885
1.00000E+07 1.62917
1.02069E+07 1.63289
1.03368E+07 1.63519
1.05000E+07 1.63803
1.10000E+07 1.64571
1.14488E+07 1.65170
1.14836E+07 1.65214
1.15000E+07 1.65235
1.20000E+07 1.65814
1.20032E+07 1.65818
1.20655E+07 1.65886
1.20993E+07 1.65923
1.25000E+07 1.66326
1.28700E+07 1.66674
1.30000E+07 1.66786
1.35000E+07 1.67206
1.38485E+07 1.67485
1.39699E+07 1.67574
1.40000E+07 1.67595
1.40914E+07 1.67667
1.40915E+07 1.67667
1.44690E+07 1.67935
1.44860E+07 1.67945
1.44860E+07 1.67945
1.45000E+07 1.67955
1.46374E+07 1.68053
1.50000E+07 1.68287
1.52111E+07 1.68437
1.55000E+07 1.68623
1.56806E+07 1.68727
1.58075E+07 1.68796
1.59369E+07 1.68861
1.60000E+07 1.68891
1.61824E+07 1.69001
1.64041E+07 1.69125
1.64392E+07 1.69143
1.64997E+07 1.69174
1.65000E+07 1.69174
1.66095E+07 1.69227
1.67658E+07 1.69299
1.68352E+07 1.69327
1.68353E+07 1.69327
1.70000E+07 1.69395
1.71536E+07 1.69468
1.75000E+07 1.69615
1.77902E+07 1.69714
1.80000E+07 1.69773
1.85000E+07 1.69922
1.87279E+07 1.69970
1.87279E+07 1.69970
1.90000E+07 1.70012
1.92601E+07 1.70054
1.95000E+07 1.70079
2.00000E+07 1.70089
2.04334E+07 1.70050
2.06993E+07 1.70026
2.10000E+07 1.69999
2.20000E+07 1.69741
2.25312E+07 1.69514
2.30000E+07 1.69314
2.30486E+07 1.69285
2.33738E+07 1.69094
2.40000E+07 1.68727
2.50000E+07 1.67989
2.57229E+07 1.67355
2.60000E+07 1.67112
2.62131E+07 1.66898
2.62246E+07 1.66886
2.64541E+07 1.66656
2.70000E+07 1.66107
2.70197E+07 1.66085
2.75498E+07 1.65491
2.80000E+07 1.64986
2.83325E+07 1.64577
2.90000E+07 1.63757
2.94119E+07 1.63209
3.00000E+07 1.62426
3.00000E+07 1.62445
3.10000E+07 1.61067
3.20000E+07 1.59584
3.30000E+07 1.58070
3.40000E+07 1.56470
3.50000E+07 1.54852
3.60000E+07 1.53164
3.70000E+07 1.51469
3.80000E+07 1.49719
3.90000E+07 1.47972
4.00000E+07 1.46181
4.10000E+07 1.44400
4.20000E+07 1.42588
4.30000E+07 1.40791
4.40000E+07 1.38971
4.50000E+07 1.37171
4.60000E+07 1.35357
4.70000E+07 1.33567
4.80000E+07 1.31768
4.90000E+07 1.29997
5.00000E+07 1.28222
5.10000E+07 1.26479
5.20000E+07 1.24735
5.30000E+07 1.23024
5.40000E+07 1.21318
5.50000E+07 1.19644
5.60000E+07 1.17979
5.70000E+07 1.16348
5.80000E+07 1.14721
5.90000E+07 1.13135
6.00000E+07 1.11559
6.10000E+07 1.10034
6.20000E+07 1.08521
6.30000E+07 1.07023
6.40000E+07 1.05539
6.50000E+07 1.04070
6.60000E+07 1.02663
6.70000E+07 1.01271
6.80000E+07 0.998956
6.90000E+07 0.985358
7.00000E+07 0.971920
7.10000E+07 0.959044
7.20000E+07 0.946338
7.30000E+07 0.933782
7.40000E+07 0.921406
7.50000E+07 0.909180
7.60000E+07 0.897470
7.70000E+07 0.885910
7.80000E+07 0.874640
7.90000E+07 0.863410
8.00000E+07 0.852350
8.10000E+07 0.841970
8.20000E+07 0.831640
8.30000E+07 0.821570
8.40000E+07 0.811550
8.50000E+07 0.801690
8.60000E+07 0.792090
8.70000E+07 0.782520
8.80000E+07 0.773220
8.90000E+07 0.763950
9.00000E+07 0.754820
9.10000E+07 0.746372
9.20000E+07 0.737964
9.30000E+07 0.729676
9.40000E+07 0.721648
9.50000E+07 0.713630
9.60000E+07 0.705862
9.70000E+07 0.698114
9.80000E+07 0.690486
9.90000E+07 0.683088
1.00000E+08 0.675700
1.02000E+08 0.662046
1.04000E+08 0.648852
1.06000E+08 0.635988
1.08000E+08 0.623654
1.10000E+08 0.611720
1.12000E+08 0.600578
1.14000E+08 0.589926
1.16000E+08 0.579624
1.18000E+08 0.569562
1.20000E+08 0.559940
1.22000E+08 0.551014
1.24000E+08 0.542298
1.26000E+08 0.533972
1.28000E+08 0.525926
1.30000E+08 0.518060
1.32000E+08 0.510848
1.34000E+08 0.503876
1.36000E+08 0.497054
1.38000E+08 0.490552
1.40000E+08 0.484260
1.42000E+08 0.478370
1.44000E+08 0.472770
1.46000E+08 0.467270
1.48000E+08 0.462040
1.50000E+08 0.456990
1.52000E+08 0.452196
1.54000E+08 0.447652
1.56000E+08 0.443168
1.58000E+08 0.438934
1.60000E+08 0.434840
1.62000E+08 0.431057
1.64000E+08 0.427494
1.66000E+08 0.423981
1.68000E+08 0.420668
1.70000E+08 0.417485
1.72000E+08 0.414332
1.74000E+08 0.411369
1.76000E+08 0.408446
1.78000E+08 0.405703
1.80000E+08 0.402990
1.82000E+08 0.400645
1.84000E+08 0.398400
1.86000E+08 0.396175
1.88000E+08 0.394110
1.90000E+08 0.392065
1.92000E+08 0.390180
1.94000E+08 0.388305
1.96000E+08 0.386590
1.98000E+08 0.384955
2.00000E+08 0.383320