Mg-24(n,tot) ENDF/B-VII.1
Energy(eV) XS(b)
1.00000E-05 6.27798
1.25000E-05 6.01094
1.50000E-05 5.81381
2.00000E-05 5.53711
2.75000E-05 5.27384
3.50000E-05 5.10057
4.25000E-05 4.97548
5.00000E-05 4.87972
6.25000E-05 4.76029
7.50000E-05 4.67214
0.000100000 4.54839
0.000125000 4.46395
0.000150000 4.40161
0.000200000 4.31411
0.000275000 4.23086
0.000350000 4.17606
0.000425000 4.13651
0.000500000 4.10623
0.000625000 4.06846
0.000750000 4.04058
0.00100000 4.00145
0.00125000 3.97475
0.00150000 3.95504
0.00200000 3.92737
0.00275000 3.90104
0.00350000 3.88371
0.00425000 3.87120
0.00500000 3.86163
0.00625000 3.84968
0.00750000 3.84087
0.0100000 3.82849
0.0125000 3.82005
0.0150000 3.81382
0.0200000 3.80507
0.0253000 3.79879
0.0314750 3.79359
0.0376500 3.78973
0.0500000 3.78428
0.0625000 3.78050
0.0750000 3.77771
0.100000 3.77380
0.125000 3.77113
0.150000 3.76916
0.200000 3.76639
0.275000 3.76376
0.350000 3.76202
0.500000 3.75981
0.750000 3.75774
1.00000 3.75650
1.50000 3.75503
2.00000 3.75415
2.75000 3.75331
3.50000 3.75276
5.00000 3.75206
7.50000 3.75139
10.0000 3.75098
15.0000 3.75049
20.0000 3.75019
27.5000 3.74989
35.0000 3.74968
50.0000 3.74938
75.0000 3.74905
100.000 3.74880
150.000 3.74840
200.000 3.74807
275.000 3.74761
350.000 3.74717
500.000 3.74635
750.000 3.74504
1000.00 3.74377
1500.00 3.74126
2000.00 3.73881
2750.00 3.73518
3500.00 3.73163
5000.00 3.72473
7500.00 3.71380
10000.0 3.70362
15000.0 3.68576
20000.0 3.67188
26587.3 3.66188
33174.6 3.66623
38587.3 3.68750
44000.0 3.73612
45174.6 3.75205
45761.8 3.76101
46055.5 3.76604
46202.3 3.76981
46275.7 3.77640
46312.4 3.79787
46330.7 3.87692
46335.3 3.95400
46339.9 4.15796
46342.2 4.41760
46344.5 5.05298
46345.7 5.79062
46346.8 7.36042
46347.4 8.93694
46348.0 11.6737
46348.5 16.9513
46348.8 21.5098
46349.1 27.8278
46349.6 42.5055
46350.0 52.0372
46350.5 42.1645
46350.9 27.8281
46351.4 18.6329
46351.8 13.4608
46352.3 10.4682
46352.7 8.66660
46353.6 6.66766
46354.5 5.67181
46356.3 4.76345
46358.0 4.37746
46361.6 4.06364
46365.2 3.94277
46372.3 3.85063
46379.4 3.81685
46407.9 3.78330
46465.0 3.77543
46579.0 3.77515
46807.1 3.77859
47263.2 3.78682
48175.5 3.80501
50000.0 3.84822
57249.5 4.16286
60874.3 4.48172
64499.0 5.03539
68123.8 6.07311
71748.5 8.24879
73560.9 10.2832
75373.3 13.6264
77185.6 19.4377
78998.0 29.9649
81249.0 53.4067
82374.5 66.0821
83500.0 71.1746
88002.0 32.8871
89501.8 24.5316
91001.5 19.1314
92501.3 15.5507
94001.0 13.0892
97000.5 10.0469
100000 8.31776
104794 6.78080
109587 5.94066
114381 5.42915
119175 5.09444
128762 4.70221
138349 4.50397
157524 4.40324
167111 4.46418
171905 4.52379
174302 4.56176
175500 4.58296
176099 4.59424
176399 4.60044
176549 4.60513
176623 4.61335
176661 4.63943
176680 4.73020
176689 5.02632
176694 5.83189
176696 7.38920
176697 9.55952
176698 14.4902
176699 20.5212
176700 24.4166
176701 20.5046
176702 14.4696
176703 10.1116
176704 7.91671
176706 6.17256
176709 5.17033
176717 4.77716
176733 4.65345
176764 4.61903
176826 4.61108
176950 4.61124
177199 4.61565
177695 4.62567
178689 4.64678
180676 4.69253
184651 4.79912
192601 5.08327
208500 6.05378
220000 7.26158
220000 6.98948
220001 6.98966
220001 6.98983
220002 6.99018
220004 6.99088
220008 6.99224
220011 6.98655
220022 6.98308
220032 6.99514
220033 6.99375
220036 6.99382
220039 6.99389
220044 6.99403
220048 6.99927
220055 6.99610
220064 6.99698
220067 6.99152
220078 6.98804
220089 6.99297
220096 7.00163
220111 7.00039
220133 7.00994
220155 7.01946
220177 7.02091
220186 7.01227
220200 7.01842
220211 7.02180
220222 7.02107
220230 7.01742
220233 7.02035
220244 7.02736
220255 7.03026
220266 7.02913
220274 7.02554
220277 7.02829
220288 7.03430
220299 7.03673
220310 7.03574
220318 7.02974
220322 7.03111
220333 7.03607
220344 7.03813
220355 7.03746
220361 7.03451
220374 7.04156
220392 7.04865
220407 7.04770
220420 7.04402
220422 7.04543
220430 7.04867
220437 7.05191
220452 7.05549
220467 7.05643
220481 7.05713
220493 7.05427
220496 7.05591
220504 7.05869
220511 7.06147
220526 7.06514
220541 7.06706
220556 7.06737
220571 7.06622
220580 7.06548
220585 7.06782
220600 7.07239
220615 7.07578
220630 7.07810
220645 7.07942
220660 7.07980
220675 7.07933
220682 7.07909
220689 7.08176
220704 7.08604
220719 7.08962
220749 7.09488
220779 7.09787
220808 7.09935
220828 7.09883
220838 7.10181
220868 7.10930
220897 7.11558
220927 7.12049
220957 7.12434
220986 7.12737
221016 7.12938
221046 7.13063
221062 7.13098
221076 7.13427
221105 7.14051
221135 7.14627
221165 7.15150
221194 7.15619
221224 7.16053
221254 7.16448
221284 7.16807
221313 7.17126
221343 7.17425
221373 7.17694
221402 7.17931
221412 7.18007
221432 7.18406
221462 7.18977
221492 7.19529
221521 7.20043
221551 7.20560
221581 7.21061
221640 7.22000
221700 7.22907
221759 7.23750
221812 7.24478
221818 7.24542
221833 7.24716
221848 7.24889
221878 7.25236
221937 7.25879
221997 7.26515
222056 7.27108
222112 7.27651
222115 7.27699
222123 7.27817
222130 7.27935
222145 7.28171
222175 7.28642
222234 7.29543
222294 7.30455
222353 7.31329
222413 7.32215
222472 7.33065
222531 7.33905
222591 7.34764
222650 7.35587
222710 7.36431
222769 7.37241
222829 7.38073
222888 7.38873
222947 7.39667
223007 7.40485
223066 7.41272
223126 7.42083
223244 7.43642
223363 7.45219
223482 7.46787
223601 7.48349
223629 7.48716
223720 7.50163
223839 7.52051
223958 7.53937
224076 7.55792
224195 7.57675
224314 7.59560
224433 7.61446
224552 7.63332
224671 7.65220
224789 7.67081
224908 7.68975
225027 7.70871
225146 7.72771
225265 7.74674
225369 7.76329
225384 7.76557
225443 7.77399
225502 7.78242
225621 7.79962
225740 7.81685
225859 7.83413
226097 7.86882
226334 7.90339
226572 7.93848
226663 7.95195
226810 7.97636
227047 8.01570
227285 8.05560
227523 8.09570
227760 8.13570
227998 8.17623
228279 8.22427
228561 8.27296
228842 8.32163
228927 8.33636
229123 8.36757
229404 8.41248
229463 8.42198
229686 8.46161
229967 8.51162
230248 8.56195
230529 8.61257
230811 8.66386
231092 8.71508
231373 8.76659
231936 8.87085
232485 8.97341
232498 8.97567
232533 8.98183
232568 8.98800
232639 9.00034
232780 9.02506
233061 9.07474
233197 9.09877
233623 9.18101
234186 9.29074
234748 9.40100
235311 9.51250
235873 9.62439
236043 9.65846
236436 9.73397
236931 9.82935
236998 9.84312
237139 9.87214
237280 9.90118
237561 9.95938
238123 10.0757
239248 10.3097
239601 10.3834
240373 10.5424
241499 10.7743
241515 10.7774
241550 10.7846
241584 10.7917
241654 10.8060
241792 10.8346
242070 10.8917
242624 11.0057
243220 11.1273
243749 11.2364
244739 11.4380
244874 11.4660
245155 11.5238
245437 11.5812
245999 11.6954
246093 11.7142
246351 11.7673
246609 11.8200
247124 11.9245
247302 11.9601
247776 12.0571
248249 12.1527
248378 12.1785
248858 12.2763
249337 12.3725
249374 12.3803
249452 12.3963
249531 12.4122
249687 12.4440
250000 12.5069
250000 12.0667
250001 12.0668
250002 12.0669
250003 12.0671
250006 12.0676
250012 12.0685
250024 12.0703
250048 12.0740
250096 12.0813
250192 12.0958
250499 12.1438
250954 12.2131
251631 12.3170
252235 12.4096
252749 12.4885
252775 12.4924
252854 12.5045
252932 12.5165
253089 12.5402
253251 12.5649
253412 12.5894
253573 12.6139
253594 12.6171
253664 12.6263
253734 12.6354
253896 12.6568
254057 12.6779
254218 12.6989
254379 12.7200
254540 12.7410
254701 12.7621
254822 12.7780
254943 12.7939
254999 12.8013
255064 12.8097
255185 12.8254
255266 12.8360
255346 12.8462
255427 12.8568
255507 12.8672
255588 12.8777
255669 12.8883
255749 12.8986
255830 12.9092
255870 12.9143
255910 12.9194
255951 12.9250
255991 12.9301
256031 12.9353
256072 12.9408
256112 12.9459
256152 12.9510
256193 12.9565
256233 12.9618
256273 12.9668
256313 12.9720
256354 12.9775
256394 12.9828
256414 12.9853
256434 12.9879
256454 12.9906
256475 12.9935
256495 12.9961
256515 12.9987
256535 13.0014
256555 13.0040
256575 13.0066
256596 13.0096
256616 13.0123
256636 13.0149
256656 13.0176
256676 13.0203
256696 13.0229
256711 13.0250
256716 13.0272
256726 13.0316
256737 13.0368
256747 13.0412
256757 13.0457
256767 13.0501
256777 13.0545
256787 13.0591
256797 13.0634
256807 13.0680
256817 13.0724
256827 13.0769
256837 13.0814
256847 13.0859
256857 13.0904
256868 13.0961
256878 13.1006
256888 13.1052
256898 13.1099
256908 13.1145
256918 13.1192
256922 13.1212
256928 13.1300
256938 13.1442
256943 13.1513
256948 13.1584
256953 13.1656
256958 13.1728
256966 13.1843
256974 13.1958
256982 13.2073
256990 13.2190
256994 13.2248
256999 13.2342
257003 13.2401
257006 13.2448
257007 13.2484
257011 13.2622
257015 13.2759
257019 13.2897
257023 13.3036
257027 13.3174
257031 13.3314
257035 13.3453
257039 13.3594
257043 13.3734
257047 13.3876
257051 13.4015
257051 13.4017
257052 13.4049
257052 13.4081
257053 13.4146
257055 13.4273
257059 13.4544
257063 13.4817
257067 13.5090
257071 13.5364
257075 13.5639
257079 13.5916
257080 13.5993
257083 13.6347
257087 13.6805
257091 13.7264
257095 13.7725
257097 13.7944
257097 13.7969
257098 13.8055
257098 13.8141
257099 13.8300
257101 13.8649
257103 13.8999
257105 13.9351
257107 13.9702
257109 14.0054
257111 14.0389
257111 14.0425
257112 14.0549
257112 14.0675
257113 14.0906
257115 14.1415
257117 14.1927
257119 14.2438
257121 14.2951
257122 14.3221
257123 14.3594
257125 14.4304
257127 14.5016
257129 14.5729
257130 14.6049
257131 14.6509
257134 14.8413
257136 14.9412
257137 14.9878
257138 15.0488
257140 15.1768
257142 15.3055
257143 15.3705
257144 15.4551
257146 15.6172
257148 15.7719
257148 15.7904
257149 15.8408
257149 15.8923
257150 15.9879
257152 16.1966
257153 16.2959
257154 16.4243
257156 16.6838
257157 16.8026
257157 16.8351
257158 16.9123
257158 16.9755
257159 17.1316
257160 17.2721
257160 17.3019
257161 17.3929
257161 17.4675
257162 17.6563
257163 17.8458
257164 18.0188
257164 18.0663
257165 18.1802
257165 18.2736
257166 18.5041
257167 18.7117
257167 18.7544
257168 18.8875
257168 18.9966
257169 19.2715
257170 19.5197
257170 19.5812
257171 19.7397
257171 19.8698
257172 20.1905
257173 20.4873
257173 20.5699
257174 20.7546
257174 20.9062
257175 21.2416
257175 21.3150
257176 21.5265
257176 21.6999
257177 22.1324
257178 22.5248
257178 22.6219
257179 22.8629
257179 23.0603
257180 23.5043
257180 23.6164
257181 24.0407
257181 24.1417
257182 24.4233
257182 24.6531
257183 25.2136
257184 25.8486
257186 27.1048
257187 27.7416
257188 28.4006
257190 29.7117
257191 30.3809
257192 30.9825
257193 31.5231
257193 31.6241
257194 32.0558
257194 32.1653
257195 32.3998
257195 32.5757
257196 32.9728
257196 33.0252
257197 33.2982
257197 33.3625
257198 33.4776
257198 33.5527
257199 33.7206
257199 33.7114
257200 33.7536
257200 33.7688
257201 33.6863
257201 33.6610
257202 33.4837
257202 33.5787
257203 33.3679
257203 33.2971
257204 33.0427
257204 33.0082
257205 32.8044
257205 32.6279
257206 32.2456
257206 32.1519
257207 31.7557
257207 31.6088
257208 31.2578
257208 30.8970
257209 30.2275
257210 29.3173
257212 28.0793
257214 26.9007
257214 26.7982
257215 26.5018
257215 26.2095
257216 25.6955
257217 25.1691
257217 25.0579
257218 24.7914
257218 24.5826
257219 24.1029
257219 24.0003
257220 23.7537
257220 23.5609
257220 23.4619
257221 23.1234
257221 23.0281
257222 22.8020
257222 22.6258
257223 22.2310
257223 22.0351
257224 21.7509
257224 21.4727
257225 20.9867
257226 20.6478
257226 20.6026
257227 20.4374
257227 20.3091
257228 20.0088
257228 19.9643
257229 19.8219
257229 19.7113
257230 19.4273
257231 19.1696
257231 19.1203
257232 19.0006
257232 18.9076
257233 18.6693
257234 18.4531
257234 18.4066
257235 18.3036
257235 18.2236
257236 18.0230
257237 17.8414
257237 17.7565
257238 17.6310
257238 17.5081
257239 17.2935
257240 17.1338
257241 16.9884
257241 16.9720
257242 16.9058
257242 16.8544
257243 16.7225
257244 16.5899
257245 16.4699
257245 16.4480
257246 16.3926
257246 16.3495
257247 16.2394
257248 16.1395
257248 16.1114
257249 16.0478
257249 15.9979
257250 15.9420
257252 15.7650
257252 15.7315
257253 15.6506
257254 15.5820
257255 15.4505
257257 15.3110
257259 15.1772
257259 15.1674
257260 15.1399
257260 15.1131
257261 15.0666
257263 14.9593
257265 14.8566
257265 14.8397
257266 14.7945
257267 14.7560
257268 14.6817
257270 14.6044
257272 14.5263
257274 14.4519
257274 14.4466
257275 14.4324
257275 14.4185
257276 14.3943
257278 14.3387
257280 14.2827
257283 14.1723
257285 14.1211
257285 14.1194
257286 14.1099
257286 14.1006
257287 14.0843
257289 14.0470
257291 14.0094
257293 13.9716
257295 13.9338
257297 13.8809
257298 13.8640
257300 13.8401
257302 13.8160
257304 13.7919
257306 13.7675
257308 13.7431
257310 13.7185
257315 13.6492
257315 13.6477
257316 13.6439
257316 13.6402
257317 13.6331
257319 13.6201
257323 13.5915
257328 13.5478
257332 13.5193
257336 13.4907
257340 13.4562
257341 13.4512
257345 13.4368
257349 13.4221
257353 13.4073
257358 13.3846
257362 13.3698
257366 13.3551
257371 13.3333
257375 13.3186
257379 13.3041
257379 13.3036
257380 13.3028
257380 13.3020
257381 13.3004
257383 13.2974
257388 13.2871
257392 13.2808
257396 13.2744
257401 13.2645
257405 13.2582
257409 13.2517
257414 13.2422
257418 13.2359
257422 13.2295
257426 13.2231
257435 13.2075
257443 13.1935
257444 13.1928
257448 13.1909
257452 13.1893
257461 13.1844
257469 13.1808
257478 13.1761
257487 13.1715
257495 13.1680
257504 13.1634
257512 13.1598
257521 13.1553
257530 13.1510
257538 13.1475
257547 13.1431
257555 13.1395
257564 13.1352
257572 13.1315
257581 13.1273
257589 13.1235
257590 13.1234
257594 13.1230
257598 13.1227
257607 13.1220
257615 13.1213
257624 13.1206
257633 13.1198
257650 13.1184
257667 13.1171
257684 13.1158
257701 13.1145
257719 13.1132
257736 13.1119
257744 13.1113
257753 13.1118
257770 13.1127
257787 13.1135
257804 13.1145
257822 13.1156
257839 13.1164
257856 13.1174
257873 13.1183
257890 13.1192
257908 13.1203
257925 13.1211
257959 13.1230
257993 13.1249
258028 13.1270
258062 13.1289
258097 13.1309
258131 13.1328
258165 13.1348
258200 13.1369
258234 13.1388
258268 13.1407
258303 13.1427
258337 13.1447
258371 13.1467
258440 13.1506
258509 13.1547
258578 13.1586
258646 13.1626
258715 13.1665
258784 13.1706
258853 13.1746
258921 13.1785
258990 13.1826
259127 13.1905
259265 13.1986
259402 13.2065
259499 13.2123
259540 13.2146
259677 13.2224
259952 13.2380
260227 13.2537
260502 13.2693
260777 13.2849
261052 13.3006
261602 13.3320
261606 13.3323
261615 13.3325
261624 13.3328
261642 13.3333
261678 13.3342
261749 13.3362
261950 13.3411
262151 13.3456
262701 13.3589
263801 13.3857
263803 13.3857
263809 13.3858
263815 13.3859
263828 13.3860
263852 13.3863
263901 13.3869
263999 13.3879
264249 13.3894
264499 13.3901
265000 13.3892
266000 13.3783
266249 13.3752
267127 13.3573
268005 13.3306
268499 13.3015
268875 13.2771
270009 13.2288
270749 13.1766
271750 13.0967
272014 13.0807
272999 13.0000
274018 12.9074
274625 12.8382
275896 12.7103
277166 12.5727
277499 12.5299
277501 12.5295
277508 12.5287
277516 12.5278
277530 12.5262
277559 12.5229
277617 12.5162
277750 12.5007
277884 12.4851
278150 12.4536
278683 12.3898
279749 12.2586
280314 12.1877
280376 12.1789
280579 12.1520
280782 12.1249
281188 12.0704
282000 11.9601
283251 11.7889
284250 11.6558
286500 11.3568
286609 11.3425
286877 11.3044
287144 11.2662
287680 11.1898
288750 11.0371
289001 11.0023
290001 10.8632
291000 10.7248
291876 10.6079
293250 10.4216
294752 10.2275
295500 10.1289
296052 10.0592
297627 9.85929
297750 9.84323
298031 9.80783
298313 9.77261
298875 9.70260
300000 9.56451
300502 9.50590
302250 9.29555
303377 9.16785
304500 9.03635
306252 8.84272
306495 8.81487
306750 8.78738
307313 8.72884
307875 8.67098
309000 8.55734
309127 8.54497
309392 8.51757
309658 8.49032
310189 8.43630
311250 8.33003
312002 8.25743
312991 8.15777
313500 8.11226
314878 7.99345
317753 7.74140
318000 7.71922
318743 7.65322
319486 7.58825
320628 7.50037
322501 7.35168
322734 7.33350
323500 7.27908
323503 7.27887
323513 7.27813
323523 7.27740
323542 7.27593
323581 7.27300
323659 7.26715
323815 7.25547
324127 7.23224
324751 7.18624
325982 7.09667
326378 7.07073
327001 7.02756
329123 6.88353
329251 6.87578
329253 6.87570
329257 6.87541
329262 6.87513
329271 6.87455
329288 6.87340
329323 6.87111
329394 6.86652
329534 6.85737
329815 6.83915
330377 6.80306
331501 6.73218
332128 6.69292
332263 6.68400
332635 6.66251
333007 6.64120
333751 6.59914
335004 6.52883
336001 6.47073
337879 6.36287
338251 6.34078
338545 6.32316
339523 6.27466
340501 6.22723
340754 6.21491
341753 6.16388
342751 6.11392
343629 6.07013
344348 6.03351
344827 6.00875
345001 6.00127
345706 5.97074
346410 5.94070
346504 5.93672
346878 5.92011
347251 5.90363
348315 5.85665
349379 5.81072
349501 5.80520
349903 5.78685
350305 5.76864
351108 5.73266
351751 5.70905
352255 5.69045
354001 5.62349
355130 5.58087
356251 5.53695
357390 5.49274
358005 5.47350
358501 5.45706
359627 5.41985
360752 5.38370
360880 5.37962
361145 5.37052
361411 5.36149
361941 5.34359
363002 5.30851
363672 5.28658
363755 5.28445
363942 5.27918
364129 5.27394
364504 5.26355
365252 5.24314
366630 5.20636
367502 5.18226
368068 5.16680
369505 5.12696
369752 5.11995
369953 5.11423
370448 5.10391
370943 5.09383
372002 5.07154
372381 5.06373
373818 5.03336
374252 5.02392
375256 5.00265
376235 4.98139
376502 4.97784
376693 4.97532
377412 4.96484
378131 4.95508
378752 4.94598
379568 4.93470
380946 4.91493
381002 4.91468
381006 4.91465
381020 4.91455
381035 4.91444
381063 4.91422
381120 4.91380
381235 4.91297
381464 4.91137
381921 4.90845
382836 4.90378
383252 4.90070
384666 4.89265
385502 4.88654
385657 4.88557
386077 4.88626
386496 4.88739
386627 4.88722
386928 4.88697
387228 4.88696
387752 4.89115
388326 4.89657
390002 4.90905
390156 4.91065
390368 4.91199
391071 4.92567
391127 4.92664
391342 4.93049
391557 4.93451
391986 4.94311
392252 4.94779
392901 4.96050
393377 4.96904
393509 4.97160
393816 4.98120
394502 5.00126
394731 5.00852
395080 5.01836
395627 5.04136
395646 5.04220
395708 5.04456
395769 5.04695
395893 5.05179
396140 5.06174
396633 5.08280
396752 5.08730
397094 5.10087
397435 5.11522
397619 5.12638
397878 5.14071
398606 5.18353
399003 5.20556
399593 5.24068
399791 5.25164
400128 5.27694
400368 5.29555
401143 5.35385
401253 5.36180
401361 5.36967
401640 5.39527
401919 5.42172
402378 5.46312
402694 5.49309
402932 5.51420
403469 5.57516
403503 5.57882
403596 5.58881
403688 5.59890
403874 5.61945
404244 5.66201
404502 5.68995
404628 5.70693
405019 5.76108
405190 5.78345
405753 5.86056
405794 5.86629
405934 5.88445
406073 5.90296
406315 5.94267
406570 5.98576
406878 6.03481
407345 6.11279
407440 6.12759
407643 6.16009
408003 6.23182
408120 6.25571
408520 6.33290
408895 6.40857
409037 6.43557
409213 6.46961
409554 6.54753
409670 6.57458
409999 6.64711
410071 6.66490
410258 6.71158
410445 6.75924
410587 6.79305
410784 6.84095
411104 6.92853
411221 6.96154
411569 7.05316
411621 7.06847
411809 7.12456
411996 7.18180
412138 7.22209
412354 7.28492
412655 7.38317
