Si-29(n,tot) ENDF/B-VII.1
Energy(eV) XS(b)
1.00000E-05 8.61776
1.25000E-05 7.98077
1.50000E-05 7.51057
2.00000E-05 6.85055
2.75000E-05 6.22255
3.50000E-05 5.80924
4.25000E-05 5.51087
5.00000E-05 5.28245
6.25000E-05 4.99758
7.50000E-05 4.78730
0.000100000 4.49213
0.000125000 4.29070
0.000150000 4.14201
0.000200000 3.93329
0.000275000 3.73470
0.000350000 3.60400
0.000425000 3.50965
0.000500000 3.43742
0.000625000 3.34733
0.000750000 3.28084
0.00100000 3.18750
0.00125000 3.12380
0.00150000 3.07678
0.00200000 3.01078
0.00275000 2.94797
0.00350000 2.90664
0.00425000 2.87681
0.00500000 2.85397
0.00625000 2.82548
0.00750000 2.80445
0.0100000 2.77493
0.0125000 2.75479
0.0150000 2.73992
0.0200000 2.71905
0.0253000 2.70409
0.0314750 2.69168
0.0376500 2.68247
0.0500000 2.66946
0.0625000 2.66045
0.0750000 2.65380
0.100000 2.64447
0.125000 2.63810
0.150000 2.63340
0.200000 2.62680
0.275000 2.62052
0.350000 2.61638
0.500000 2.61111
0.750000 2.60616
1.00000 2.60321
1.50000 2.59971
2.00000 2.59762
2.75000 2.59563
3.50000 2.59432
5.00000 2.59265
7.50000 2.59107
10.0000 2.59013
15.0000 2.58900
20.0000 2.58832
27.5000 2.58766
35.0000 2.58722
50.0000 2.58663
75.0000 2.58603
100.000 2.58563
150.000 2.58508
200.000 2.58467
275.000 2.58417
350.000 2.58373
500.000 2.58296
750.000 2.58179
1000.00 2.58068
1500.00 2.57855
2000.00 2.57646
2750.00 2.57338
3500.00 2.57032
5000.00 2.56426
7500.00 2.55427
10000.0 2.54441
11319.1 2.53932
12638.1 2.53444
13297.6 2.53228
13627.4 2.53143
13957.2 2.53094
14286.9 2.53138
14451.8 2.53247
14616.7 2.53502
14699.1 2.53740
14781.6 2.54123
14864.0 2.54776
14946.4 2.55996
14987.7 2.57035
15028.9 2.58632
15070.1 2.61259
15111.3 2.66025
15131.9 2.70013
15152.5 2.76054
15173.2 2.85837
15193.8 3.03224
15204.1 3.17497
15214.4 3.38700
15224.7 3.72225
15235.0 4.29643
15245.3 5.40478
15250.4 6.38874
15255.6 7.96703
15260.8 10.7254
15265.9 16.1091
15268.5 20.9010
15271.1 28.4162
15273.6 40.8322
15276.2 61.4888
15279.1 96.6547
15282.0 120.027
15284.9 96.6950
15287.8 61.5270
15290.1 42.5090
15292.4 30.5389
15294.7 22.9177
15297.0 17.9021
15301.6 12.0504
15306.2 8.95385
15310.8 7.13591
15315.4 5.98876
15324.6 4.67908
15333.8 3.99004
15343.0 3.58508
15352.2 3.32706
15361.4 3.15270
15379.8 2.93899
15398.3 2.81810
15416.7 2.74313
15435.1 2.69348
15471.9 2.63379
15508.7 2.60063
15545.5 2.58030
15582.3 2.56691
15656.0 2.55089
15729.6 2.54196
15803.2 2.53642
15876.8 2.53270
16024.1 2.52807
16171.3 2.52528
16465.9 2.52191
16760.4 2.51974
17054.9 2.51803
17643.9 2.51518
18822.0 2.51023
20000.0 2.50556
23977.0 2.49025
27954.0 2.47531
29942.5 2.46805
31931.0 2.46116
33919.5 2.45543
34913.8 2.45397
35410.9 2.45417
35908.0 2.45565
36267.0 2.45816
36626.0 2.46288
36984.9 2.47179
37343.9 2.48960
37523.4 2.50531
37702.9 2.52988
37882.4 2.57085
38061.9 2.64576
38151.6 2.70853
38241.3 2.80339
38331.1 2.95610
38420.8 3.22405
38510.6 3.75770
38555.5 4.24713
38600.3 5.05813
38645.2 6.53967
38667.6 7.78220
38690.1 9.65718
38712.5 12.6543
38734.9 17.7840
38757.4 27.2794
38779.8 45.7229
38799.4 71.9116
38819.0 89.4700
38838.6 72.1618
38858.2 46.1002
38880.0 28.0484
38901.7 18.5409
38923.5 13.3064
38945.3 10.2070
38967.0 8.24570
38988.8 6.93602
39032.3 5.35826
39075.8 4.48416
39119.4 3.95145
39206.4 3.36322
39293.4 3.06275
39380.5 2.88872
39467.5 2.77880
39554.6 2.70485
39728.7 2.61433
39902.8 2.56285
40076.8 2.53058
40250.9 2.50888
40599.1 2.48208
40947.3 2.46643
41295.5 2.45621
41643.7 2.44897
42340.0 2.43915
43036.4 2.43248
44429.1 2.42308
45821.8 2.41588
47214.6 2.40960
50000.0 2.39826
56250.0 2.37490
62500.0 2.35255
75000.0 2.30908
100000 2.22499
129540 2.13123
136925 2.11137
144310 2.09940
148003 2.10355
149849 2.11304
151695 2.13407
153541 2.18188
154464 2.22855
155388 2.30892
156311 2.46216
156772 2.59579
157234 2.80545
157695 3.15936
158157 3.81731
158388 4.37272
158619 5.20509
158849 6.49178
159080 8.49333
159380 12.3448
159680 15.0922
159980 12.6328
160280 8.64789
160468 6.85654
160657 5.60987
161033 4.14222
161410 3.38716
161787 2.96112
162163 2.70070
162540 2.53108
163293 2.33188
164047 2.22397
164800 2.15885
166307 2.08663
167814 2.04838
169320 2.02456
172334 1.99503
175347 1.97528
178360 1.95923
179867 1.95192
181374 1.94545
182127 1.94355
182880 1.94635
183257 1.95487
183445 1.96486
183634 1.98430
183822 2.02670
183916 2.06802
184010 2.13960
184105 2.27750
184152 2.39837
184199 2.58763
184246 2.90590
184293 3.48855
184317 3.97125
184340 4.67475
184364 5.72686
184387 7.30084
184422 10.7379
184457 13.1468
184492 11.0303
184526 7.71953
184563 5.45095
184600 4.21137
184637 3.50919
184674 3.08508
184710 2.81109
184747 2.62527
184821 2.39754
184895 2.26830
184969 2.18800
185116 2.09691
185263 2.04861
185411 2.01960
185706 1.98733
186001 1.97012
186296 1.95946
186886 1.94670
187475 1.93893
188065 1.93333
189245 1.92501
191604 1.91260
193964 1.90202
203402 1.86349
222277 1.78666
260028 1.61061
297779 1.37247
316655 1.22109
321373 1.19027
326092 1.18713
328452 1.21995
330811 1.32873
331991 1.45832
333171 1.71958
333761 1.95378
334350 2.32374
334940 2.93619
335530 3.97550
336790 7.07406
337105 6.81841
337420 5.95647
338050 3.94950
338607 2.76288
339164 2.06808
339721 1.65562
340278 1.39821
341392 1.11064
342506 0.960177
344734 0.803399
346963 0.712181
351419 0.578744
355875 0.459811
360331 0.348184
364788 0.262477
367016 0.244518
369244 0.259069
371472 0.326394
373700 0.476473
375208 0.645310
376715 0.885593
379730 1.63465
385760 4.01732
388778 5.01044
391795 5.47869
397830 5.28829
401996 4.86892
406163 4.46128
414495 3.82950
422828 3.40785
431160 3.12096
447825 2.77559
464490 2.60432
481155 2.55323
497820 2.62974
514485 2.89762
522818 3.14380
531150 3.49477
536260 3.76927
541370 4.08800
543925 4.26303
545203 4.35563
546480 4.45465
547758 4.56875
548396 4.63925
549035 4.73026
549674 4.86559
550313 5.11069
550632 5.32887
550951 5.68483
551271 6.30946
551590 7.45585
551916 9.41560
552242 11.0915
552568 10.2968
552894 8.53939
553108 7.66607
553321 7.04853
553748 6.31336
554175 5.93387
554602 5.72280
555029 5.59857
555456 5.52306
556311 5.44883
557165 5.42565
558019 5.42628
559727 5.45706
563144 5.53769
566560 5.58322
575413 5.43532
584265 4.99061
601970 3.97077
607120 3.73176
610165 3.60612
613210 3.49159
614733 3.43930
616255 3.39603
617016 3.38692
617397 3.39223
617778 3.41310
618158 3.46866
618539 3.61353
618729 3.76676
618919 4.04128
619110 4.56334
619300 5.59539
619483 7.32792
619665 8.85577
619847 8.19009
620029 6.62455
620211 5.50530
620394 4.83730
620576 4.43207
620759 4.17273
621123 3.87281
621488 3.71068
621853 3.61109
622217 3.54404
622947 3.45916
623676 3.40684
624406 3.37073
625864 3.32362
628782 3.27981
631700 3.28047
637535 3.43765
640452 3.63917
643370 3.97457
645540 4.34201
646449 4.53831
647359 4.78900
647813 4.96646
648268 5.24149
648495 5.46026
648722 5.79001
648950 6.32242
649177 7.21753
649452 8.97915
649726 10.5490
650001 10.0259
650275 8.65005
650623 7.47824
650971 6.88201
651319 6.57181
651668 6.40060
652364 6.23851
653060 6.16542
655485 5.93532
657910 5.52418
662760 4.58308
665999 4.10246
669237 3.75326
675714 3.31511
682191 3.06713
688668 2.91322
701621 2.72934
708098 2.63944
711337 2.54508
712146 2.50212
712956 2.44566
713361 2.41686
713765 2.40821
713968 2.43245
714170 2.50993
714373 2.70903
714575 3.17371
714820 4.30590
714943 4.93098
715065 5.29038
715554 4.49836
715858 3.97325
716162 3.65512
716466 3.45536
716770 3.32197
717399 3.15437
718028 3.05871
719286 2.95534
721803 2.86893
726835 2.81710
736900 2.82363
746965 2.88620
757030 2.95144
767095 2.80524
777160 2.29953
782193 2.13859
787225 2.13454
789741 2.20524
792258 2.35106
794774 2.62639
797290 3.13678
799775 3.93651
802260 4.47839
804745 3.97858
807230 3.21801
809629 2.74113
812028 2.46836
814426 2.30927
816825 2.21189
821623 2.10750
826420 2.05792
835315 2.02046
844210 2.02129
853105 2.09887
857553 2.23046
862000 2.54108
863820 2.76416
868150 3.60116
872480 4.39247
881150 3.70668
885791 3.25712
890431 2.97141
899713 2.66308
918275 2.41334
936838 2.29256
946119 2.23613
948439 2.21816
950759 2.19693
951920 2.18654
953080 2.18500
953660 2.19973
953950 2.21882
954240 2.25469
954530 2.32348
954820 2.46159
955110 2.75855
955400 3.43519
955891 5.70860
956137 5.50331
956383 4.55275
956553 4.00960
956724 3.61651
956894 3.33742
957065 3.13653
957405 2.87662
957746 2.72168
958087 2.62139
958428 2.55222
959109 2.46414
959791 2.41093
960472 2.37538
961835 2.33052
964561 2.28335
967287 2.25659
978192 2.19823
1.00000E+06 2.12618
1.03775E+06 2.05499
1.05663E+06 2.10177
1.07550E+06 2.35229
1.07850E+06 2.42646
1.08845E+06 2.75875
1.09342E+06 2.96746
1.09591E+06 3.07672
1.09715E+06 3.13085
1.09777E+06 3.15764
1.09809E+06 3.17496
1.09824E+06 3.20331
1.09832E+06 3.27703
1.09836E+06 3.42569
1.09840E+06 4.03372
1.09843E+06 4.99570
1.09846E+06 4.14775
1.09849E+06 3.61653
1.09852E+06 3.42355
1.09858E+06 3.29792
1.09870E+06 3.24202
1.09894E+06 3.22821
1.09942E+06 3.23983
1.10037E+06 3.27747
1.10229E+06 3.35614
1.10421E+06 3.43174
1.10613E+06 3.50264
1.10996E+06 3.63090
1.11380E+06 3.76571
1.11531E+06 3.84516
1.11682E+06 3.97547
1.11833E+06 4.23037
1.11984E+06 4.79792
1.12228E+06 6.71478
1.12350E+06 6.61142
1.12472E+06 5.76104
1.12558E+06 5.25361
1.12643E+06 4.88665
1.12814E+06 4.43802
1.12985E+06 4.18778
1.13157E+06 4.02782
1.13499E+06 3.82167
1.13841E+06 3.67632
1.14526E+06 3.44147
1.15210E+06 3.22434
1.15770E+06 3.03636
1.16050E+06 2.93071
1.16330E+06 2.80977
1.16610E+06 2.66306
1.16890E+06 2.47236
1.17170E+06 2.20919
1.17310E+06 2.04471
1.17450E+06 1.87485
1.17655E+06 1.77128
1.17860E+06 2.23206
1.18070E+06 3.00599
1.18280E+06 3.38317
1.18512E+06 3.47590
1.18744E+06 3.47021
1.18976E+06 3.44855
1.19092E+06 3.42749
1.19150E+06 3.41316
1.19179E+06 3.44380
1.19194E+06 3.54010
1.19201E+06 3.66252
1.19208E+06 3.89305
1.19217E+06 4.46068
1.19227E+06 5.09656
1.19246E+06 4.71827
1.19254E+06 4.43634
1.19262E+06 4.23954
1.19278E+06 4.01102
1.19295E+06 3.89335
1.19311E+06 3.82608
1.19344E+06 3.75823
1.19377E+06 3.72988
1.19508E+06 3.73646
1.19770E+06 3.93659
1.20760E+06 5.75341
1.21255E+06 5.69226
1.21750E+06 5.03559
1.22266E+06 4.45503
1.22781E+06 4.06394
1.23813E+06 3.61241
1.24844E+06 3.36534
1.25875E+06 3.20745
1.27938E+06 3.01040
1.30000E+06 2.88646
1.30000E+06 2.87831
1.31000E+06 2.83208
1.31730E+06 2.80275
1.31731E+06 2.80268
1.32000E+06 2.79188
1.33000E+06 2.75641
1.34000E+06 2.72475
1.35000E+06 2.69634
1.36000E+06 2.67121
1.37000E+06 2.65220
1.37250E+06 2.65799
1.37500E+06 2.66378
1.37750E+06 2.66958
1.38000E+06 2.67538
1.38150E+06 2.71239
1.38300E+06 2.74940
1.38400E+06 2.82985
1.38500E+06 2.91032
1.38640E+06 3.19983
1.38740E+06 3.58852
1.38780E+06 3.77847
1.38820E+06 3.95541
1.38860E+06 4.07687
1.38890E+06 4.10849
1.38920E+06 4.08210
1.38960E+06 3.97305
1.39000E+06 3.81552
1.39040E+06 3.64696
1.39140E+06 3.29418
1.39220E+06 3.13779
1.39300E+06 2.98144
1.39400E+06 2.89688
1.39500E+06 2.81234
1.39750E+06 2.74401
1.40000E+06 2.67571
1.40500E+06 2.64105
1.41000E+06 2.60640
1.42000E+06 2.57664
1.43000E+06 2.55550
1.44000E+06 2.53788
1.45000E+06 2.52217
1.46000E+06 2.50778
1.47000E+06 2.49440
1.48000E+06 2.48180
1.49000E+06 2.47018
1.50000E+06 2.45855
1.60000E+06 2.21000
1.70000E+06 1.96000
1.75000E+06 1.84200
1.75075E+06 1.83988
1.75234E+06 1.82526
1.75393E+06 1.83238
1.75553E+06 1.86262
1.75713E+06 1.83537
1.75873E+06 1.84284
1.76034E+06 1.85111
1.76194E+06 1.84747
1.76355E+06 1.85035
1.76516E+06 1.83089
1.76677E+06 1.82555
1.76839E+06 1.80832
1.77001E+06 1.83087
1.77162E+06 1.78864
1.77325E+06 1.77773
1.77487E+06 1.75993
1.77650E+06 1.77040
1.77812E+06 1.72399
1.77975E+06 1.77777
1.78139E+06 1.77071
1.78237E+06 1.77366
1.78269E+06 1.71872
1.78302E+06 1.76151
1.78335E+06 1.86291
1.78368E+06 1.92576
1.78400E+06 1.96866
1.78433E+06 2.07194
1.78466E+06 2.05862
1.78499E+06 2.23981
1.78531E+06 2.19082
1.78564E+06 2.10045
1.78597E+06 2.01384
1.78630E+06 1.86848
1.78663E+06 1.81670
1.78695E+06 1.80360
1.78728E+06 1.70700
1.78761E+06 1.77230
1.78794E+06 1.70342
1.78860E+06 1.72619
1.78958E+06 1.68173
1.79057E+06 1.72116
1.79156E+06 1.72056
1.79255E+06 1.70420
1.79354E+06 1.75481
1.79453E+06 1.75656
1.79552E+06 1.79983
1.79651E+06 1.79606
1.79751E+06 1.81174
1.79850E+06 1.80262
1.79950E+06 1.82306
1.80049E+06 1.86264
1.80149E+06 1.85583
1.80215E+06 1.87033
1.80249E+06 1.92809
1.80282E+06 2.00024
1.80315E+06 1.97180
1.80348E+06 2.05836
1.80382E+06 2.27029
1.80415E+06 2.15482
1.80448E+06 2.43380
1.80482E+06 2.66023
1.80515E+06 2.88539
1.80548E+06 3.31726
1.80582E+06 3.36251
1.80615E+06 3.09213
1.80648E+06 2.78731
1.80682E+06 2.59907
1.80715E+06 2.22732
1.80748E+06 1.96055
1.80782E+06 1.94176
1.80815E+06 1.86404
1.80849E+06 1.64794
1.80932E+06 1.77615
1.81066E+06 1.81008
1.81200E+06 1.84460
1.81334E+06 1.85869
1.81469E+06 1.86536
1.81603E+06 1.93070
1.81738E+06 1.96120
1.81872E+06 2.09208
1.82007E+06 2.13747
1.82142E+06 2.23391
1.82278E+06 2.32989
1.82413E+06 2.47029
1.82548E+06 2.50959
1.82701E+06 2.62594
1.82871E+06 2.82690
1.83041E+06 3.05028
1.83211E+06 3.29772
1.83382E+06 3.58214
1.83518E+06 3.84331
1.83621E+06 3.99655
1.83724E+06 4.26509
1.83826E+06 4.61739
1.83929E+06 4.92826
1.84032E+06 5.27373
1.84135E+06 5.63459
1.84238E+06 6.01932
1.84341E+06 6.45552
1.84444E+06 6.74216
1.84548E+06 6.98393
1.84651E+06 7.27919
1.84755E+06 7.35957
1.84858E+06 7.70012
1.84962E+06 7.85187
1.85066E+06 7.76918
1.85170E+06 7.82144
1.85274E+06 7.98371
1.85378E+06 8.21185
1.85482E+06 8.18179
1.85586E+06 7.91681
1.85690E+06 7.69503
1.85795E+06 7.43490
1.85899E+06 7.12113
1.86004E+06 7.08833
1.86108E+06 6.93606
1.86213E+06 6.75273
1.86353E+06 6.67513
1.86528E+06 6.37363
1.86703E+06 6.09954
1.86878E+06 5.78814
1.87054E+06 5.53838
1.87230E+06 5.32829
1.87406E+06 5.11365
1.87582E+06 4.88326
1.87759E+06 4.75150
1.87936E+06 4.53649
1.88113E+06 4.35873
1.88291E+06 4.11731
1.88468E+06 3.90673
1.88646E+06 3.74492
1.88824E+06 3.59067
1.89003E+06 3.31951
1.89182E+06 3.22995
1.89361E+06 3.04287
1.89540E+06 2.86792
1.89719E+06 2.69808
1.89899E+06 2.55024
1.90079E+06 2.42022
1.90223E+06 2.26920
1.90331E+06 2.16111
1.90440E+06 2.20056
1.90548E+06 2.11937
1.90656E+06 2.19106
1.90765E+06 2.17380
1.90790E+06 2.18795
1.90874E+06 2.23550
1.90983E+06 2.35475
1.91091E+06 2.61220
1.91200E+06 2.78235
1.91309E+06 3.09244
1.91437E+06 3.32061
1.91583E+06 3.73617
1.91728E+06 4.01138
1.91874E+06 4.21326
1.92021E+06 4.34020
1.92167E+06 4.38589
1.92314E+06 4.46521
1.92460E+06 4.56623
1.92570E+06 4.55002
1.92644E+06 4.61740
1.92717E+06 4.74171
1.92791E+06 5.13189
1.92865E+06 5.17160
1.92938E+06 4.81656
1.93012E+06 4.38128
1.93086E+06 4.23849
1.93159E+06 4.11940
1.93233E+06 4.13351
1.93307E+06 4.12447
1.93381E+06 4.05484
1.93510E+06 3.92928
1.93696E+06 3.89918
1.93881E+06 3.85565
1.94067E+06 3.76017
1.94253E+06 3.66674
1.94439E+06 3.66598
1.94625E+06 3.65303
1.94812E+06 3.60188
1.94999E+06 3.61767
1.95186E+06 3.58221
1.95374E+06 3.58347
1.95562E+06 3.62280
1.95750E+06 3.68324
1.95938E+06 3.74475
1.96108E+06 3.88593
1.96259E+06 3.96443
1.96410E+06 4.10785
1.96562E+06 4.33500
1.96713E+06 4.51581
1.96865E+06 4.83306
1.97017E+06 4.98247
1.97169E+06 5.24375
1.97321E+06 5.30629
1.97474E+06 5.33049
1.97626E+06 5.04431
1.97779E+06 4.90955
1.97932E+06 4.58824
1.98086E+06 4.23585
1.98239E+06 3.96229
1.98392E+06 3.78151
1.98546E+06 3.64627
1.98662E+06 3.47587
1.98739E+06 3.37997
1.98816E+06 3.49800
1.98893E+06 3.64473
1.98970E+06 3.62056
1.99047E+06 3.35864
1.99124E+06 3.12066
1.99202E+06 3.02271
1.99279E+06 2.93558
1.99356E+06 2.96760
1.99434E+06 2.96893
1.99511E+06 2.91994
1.99589E+06 2.88031
1.99724E+06 2.81813
1.99918E+06 2.77095
2.00000E+06 2.74694
2.00113E+06 2.71384
2.00308E+06 2.62237
2.00503E+06 2.58102
2.00698E+06 2.47573
2.00893E+06 2.48695
2.01089E+06 2.39581
2.01285E+06 2.38589
2.01482E+06 2.35636
2.01678E+06 2.34004
2.01875E+06 2.29327
2.02073E+06 2.28185
2.02270E+06 2.24246
2.02468E+06 2.23865
2.02666E+06 2.17186
2.02865E+06 2.12157
2.03063E+06 2.10923
2.03262E+06 2.07771
2.03462E+06 2.01304
2.03661E+06 1.93865
2.03801E+06 1.90357
2.03881E+06 1.69894
2.03961E+06 1.59587
2.04041E+06 1.42587
2.04122E+06 1.30869
2.04202E+06 1.46051
2.04282E+06 1.68319
2.04362E+06 1.97630
2.04443E+06 2.03907
2.04523E+06 2.07237
2.04644E+06 2.02409
2.04805E+06 2.05838
2.04966E+06 1.98739
2.05128E+06 1.91919
2.05289E+06 1.98740
2.05451E+06 2.00990
2.05613E+06 2.01794
2.05735E+06 2.06618
2.05816E+06 2.17014
2.05897E+06 2.29354
2.05978E+06 2.44011
2.06060E+06 2.55155
2.06141E+06 2.88447
2.06222E+06 3.12062
2.06304E+06 3.13658
2.06385E+06 2.61831
2.06467E+06 2.23651
2.06548E+06 2.07093
2.06630E+06 2.02595
2.06752E+06 1.92265
2.06916E+06 1.90138
2.07080E+06 1.84871
2.07244E+06 1.81346
2.07408E+06 1.88359
2.07572E+06 1.88390
2.07737E+06 1.97259
2.07902E+06 2.03858
2.08025E+06 2.04027
2.08108E+06 2.22599
2.08190E+06 2.40795
2.08273E+06 2.74181
2.08356E+06 3.23051
2.08438E+06 3.51642
2.08521E+06 3.45937
2.08604E+06 3.10213
2.08687E+06 3.15274
2.08770E+06 3.30718
2.08853E+06 3.71131
2.08936E+06 4.02392
2.09019E+06 4.45707
2.09102E+06 4.52561
2.09185E+06 4.44376
2.09268E+06 4.22597
2.09351E+06 4.15633
2.09435E+06 4.11736
2.09518E+06 4.13103
2.09601E+06 4.07120
2.09727E+06 4.06360
2.09860E+06 4.01892
2.09894E+06 4.00749
2.10061E+06 3.93219
2.10229E+06 3.88648
2.10396E+06 3.81642
2.10564E+06 3.74105
2.10732E+06 3.73463
2.10901E+06 3.70621
2.11027E+06 3.84034
2.11111E+06 3.82696
2.11196E+06 3.89427
2.11280E+06 4.08609
2.11364E+06 4.28278
2.11449E+06 4.67752
2.11534E+06 5.06036
2.11618E+06 5.62701
2.11703E+06 5.79727
2.11788E+06 5.61727
2.11872E+06 5.21538
2.11957E+06 4.92355
2.12042E+06 4.34330
2.12127E+06 4.07139
2.12212E+06 3.89879
2.12297E+06 3.71488
2.12382E+06 3.53426
2.12467E+06 3.57432
2.12574E+06 3.39127
2.12701E+06 3.24288
2.12829E+06 3.10324
2.13000E+06 3.08879
2.13214E+06 2.94514
2.13428E+06 2.85517
2.13643E+06 2.75385
2.13858E+06 2.73877
2.14073E+06 2.65518
2.14288E+06 2.60675
2.14504E+06 2.58613
2.14720E+06 2.61730
2.14936E+06 2.65866
2.15153E+06 2.57820
2.15370E+06 2.49917
2.15588E+06 2.49115
2.15805E+06 2.50580
2.16023E+06 2.48766
2.16242E+06 2.43373
2.16461E+06 2.44862
2.16636E+06 2.44671
2.16767E+06 2.56079
2.16899E+06 2.72024
2.17031E+06 2.90704
2.17163E+06 3.13339
2.17295E+06 3.15846
2.17427E+06 3.02326
2.17559E+06 2.99094
2.17692E+06 2.89987
2.17824E+06 2.85694
2.17957E+06 2.65506
2.18134E+06 2.65603
2.18356E+06 2.58442
2.18578E+06 2.50892
2.18800E+06 2.45584
2.19022E+06 2.38152
2.19245E+06 2.37418
2.19469E+06 2.37869
2.19692E+06 2.37499
2.19916E+06 2.34324
2.20141E+06 2.31313
2.20365E+06 2.30510
2.20590E+06 2.30583
2.20816E+06 2.35604
2.21042E+06 2.29734
2.21268E+06 2.31751
2.21494E+06 2.40425
2.21721E+06 2.51346
2.21903E+06 2.59431
2.22039E+06 2.66653
2.22175E+06 2.83981
2.22312E+06 3.00921
2.22449E+06 3.20703
2.22586E+06 3.55629
2.22723E+06 3.74189
2.22860E+06 3.74720
2.22997E+06 3.60371
2.23135E+06 3.38102
2.23272E+06 3.04562
2.23410E+06 2.84281
2.23548E+06 2.65227
2.23686E+06 2.40576
2.23824E+06 2.33592
2.24008E+06 2.24630
2.24239E+06 2.12264
2.24470E+06 2.06955
2.24701E+06 2.01482
2.24933E+06 1.98565
