S-32(n,g) ENDF/B-VII.1
Energy(eV) XS(b)
1.00000E-05 26.5672
1.25000E-05 23.7624
1.50000E-05 21.6920
2.00000E-05 18.7858
2.75000E-05 16.0206
3.50000E-05 14.2008
4.25000E-05 12.8870
5.00000E-05 11.8812
6.25000E-05 10.6269
7.50000E-05 9.70096
0.000100000 8.40127
0.000125000 7.51433
0.000150000 6.85961
0.000200000 5.94060
0.000275000 5.06616
0.000350000 4.49067
0.000425000 4.07522
0.000500000 3.75716
0.000625000 3.36051
0.000750000 3.06771
0.00100000 2.65672
0.00125000 2.37624
0.00150000 2.16920
0.00200000 1.87858
0.00275000 1.60206
0.00350000 1.42007
0.00425000 1.28870
0.00500000 1.18812
0.00625000 1.06269
0.00750000 0.970095
0.0100000 0.840126
0.0125000 0.751432
0.0150000 0.685960
0.0200000 0.594058
0.0253000 0.528182
0.0314750 0.473544
0.0376500 0.432973
0.0500000 0.375714
0.0625000 0.336048
0.0750000 0.306768
0.100000 0.265668
0.125000 0.237620
0.150000 0.216916
0.200000 0.187853
0.275000 0.160200
0.350000 0.142001
0.500000 0.118804
0.750000 0.0969996
1.00000 0.0840013
1.50000 0.0685820
2.00000 0.0593897
2.75000 0.0506425
3.50000 0.0448852
5.00000 0.0375460
7.50000 0.0306457
10.0000 0.0265309
15.0000 0.0216476
20.0000 0.0187346
27.5000 0.0159606
35.0000 0.0141331
50.0000 0.0118006
75.0000 0.00960259
100.000 0.00828813
150.000 0.00672211
200.000 0.00578304
275.000 0.00488352
350.000 0.00428695
500.000 0.00351909
750.000 0.00278665
1000.00 0.00234360
1500.00 0.00181132
2000.00 0.00149172
2750.00 0.00118901
3500.00 0.000993413
5000.00 0.000754536
7500.00 0.000551544
10000.0 0.000447948
15000.0 0.000352663
20000.0 0.000320897
25173.9 0.000345724
26467.3 0.000384862
27760.8 0.000498741
28407.5 0.000657381
28730.9 0.000815587
29054.2 0.00110371
29377.6 0.00171490
29539.3 0.00231689
29701.0 0.00339855
29781.8 0.00429596
29862.7 0.00564477
29943.5 0.00780665
30024.3 0.0115918
30105.2 0.0191356
30145.6 0.0260799
30186.0 0.0376534
30226.4 0.0590177
30246.7 0.0771455
30266.9 0.104865
30287.1 0.149979
30307.3 0.229384
30327.5 0.382617
30337.6 0.512414
30347.7 0.698780
30363.9 1.12161
30380.0 1.40375
30396.2 1.11942
30412.3 0.697343
30424.7 0.477799
30437.1 0.337564
30449.5 0.247317
30461.9 0.187490
30486.7 0.117054
30511.5 0.0794710
30536.2 0.0573060
30561.0 0.0432304
30610.6 0.0270936
30660.2 0.0185783
30709.7 0.0135543
30759.3 0.0103474
30808.9 0.00817754
30908.0 0.00551528
31007.2 0.00400669
31106.3 0.00307020
31205.4 0.00244928
31403.7 0.00170300
31602.0 0.00128868
31998.6 0.000868695
32395.1 0.000670964
32791.7 0.000562602
33584.8 0.000454618
35171.0 0.000379675
36757.3 0.000357345
39929.8 0.000353128
41516.0 0.000363233
42309.1 0.000388101
42705.7 0.000475888
42904.0 0.000819957
43003.1 0.00218360
43052.7 0.00754798
43077.5 0.0282907
43083.7 0.0490710
43089.9 0.105667
43093.0 0.180437
43096.1 0.375427
43097.6 0.618187
43099.2 1.19820
43100.0 1.85142
43100.7 3.17565
43101.1 4.43186
43101.5 6.46301
43101.9 10.1596
43102.3 16.8836
43102.6 26.9605
43103.0 33.8100
43103.4 26.9608
43103.7 16.8841
43104.0 12.4753
43104.2 9.43427
43104.6 5.70156
43105.1 3.74527
43105.5 2.62585
43106.4 1.48128
43107.3 0.945079
43109.1 0.478450
43110.9 0.287697
43114.5 0.136909
43118.1 0.0798057
43132.5 0.0212654
43161.3 0.00573111
43218.9 0.00172642
43334.1 0.000709622
43564.4 0.000454138
44025.1 0.000392572
44946.5 0.000384694
45867.8 0.000402600
46328.5 0.000463866
46558.8 0.000699432
46674.0 0.00163081
46731.6 0.00529740
46760.4 0.0194895
46774.8 0.0726554
46778.4 0.124179
46782.0 0.259082
46783.8 0.427886
46785.6 0.834185
46786.5 1.29183
46787.4 2.24291
46787.8 3.14553
46788.3 4.67059
46788.7 7.43842
46789.2 12.5494
46789.6 20.0731
46790.0 25.1275
46790.4 20.0732
46790.8 12.5497
46791.2 7.86976
46791.6 5.19786
46792.4 2.64976
46793.2 1.56585
46794.0 1.03152
46795.5 0.539201
46797.1 0.330711
46800.2 0.160023
46803.4 0.0941998
46815.9 0.0254111
46841.0 0.00685803
46891.1 0.00203650
46991.4 0.000807164
47192.0 0.000497603
47593.1 0.000422312
48395.4 0.000409309
50000.0 0.000419548
55650.8 0.000488977
61301.5 0.000593646
66952.3 0.000751272
69777.6 0.000860505
71190.3 0.000925671
71896.7 0.000961406
72603.0 0.000999478
73309.4 0.00104009
74015.7 0.00108347
74722.0 0.00112986
75428.4 0.00117953
76134.7 0.00123281
76841.1 0.00129002
77547.4 0.00135156
78253.8 0.00141786
79666.4 0.00156673
81079.1 0.00174129
82491.8 0.00194750
83904.5 0.00219304
85317.2 0.00248782
86729.9 0.00284476
88142.6 0.00328069
89555.3 0.00381747
90967.9 0.00448312
92380.6 0.00531278
93793.3 0.00634967
95206.0 0.00765836
96323.7 0.00909396
96882.5 0.0107222
97022.2 0.0118002
97161.9 0.0141962
97231.8 0.0168308
97301.6 0.0223200
97336.5 0.0276052
97371.5 0.0367209
97406.4 0.0538421
97441.3 0.0878658
97470.7 0.134804
97500.0 0.166099
97529.4 0.134735
97558.7 0.0879113
97577.8 0.0665700
97596.9 0.0519288
97635.0 0.0349228
97673.2 0.0262775
97711.3 0.0214392
97787.6 0.0166116
97863.9 0.0144286
98169.0 0.0120367
98779.4 0.0118929
100000 0.0129566
102710 0.0140509
104585 0.0128975
106460 0.0107841
110210 0.00724284
111056 0.00792783
111267 0.00876599
111478 0.0104813
111690 0.0143032
111795 0.0179253
111901 0.0235964
112041 0.0346463
112180 0.0419450
112320 0.0343263
112459 0.0231345
112587 0.0164421
112714 0.0124882
112970 0.00856159
113225 0.00679129
113480 0.00582715
114502 0.00422903
116544 0.00305546
120629 0.00192491
124714 0.00131906
128799 0.000953525
132883 0.000717727
136968 0.000557885
141053 0.000445720
143096 0.000404431
144117 0.000396400
144627 0.000433514
144755 0.000479161
144883 0.000612825
144947 0.000800791
145010 0.00133249
145042 0.00206571
145074 0.00410878
145090 0.00689011
145106 0.0143931
145114 0.0242919
145122 0.0499485
145126 0.0816380
145130 0.156459
145134 0.404482
145136 0.803051
145137 1.22621
145138 1.90118
145139 3.08411
145140 3.80487
145141 3.08406
145142 1.90113
145144 0.835560
145146 0.443040
145148 0.262723
145149 0.176060
145153 0.0928989
145157 0.0578401
145164 0.0281792
145171 0.0167975
145186 0.00800402
145201 0.00475856
145230 0.00235983
145260 0.00149751
145318 0.000870446
145377 0.000647442
145495 0.000485556
145612 0.000427262
146083 0.000364971
147024 0.000336568
148905 0.000306440
152668 0.000261421
156432 0.000228481
158313 0.000223401
159254 0.000255406
159489 0.000293738
159724 0.000405330
159842 0.000561258
159901 0.000716919
159960 0.00100058
160018 0.00160284
160048 0.00219682
160077 0.00326603
160107 0.00549386
160136 0.0114359
160151 0.0190492
160165 0.0380286
160173 0.0605660
160180 0.109543
160187 0.248614
160191 0.433328
160193 0.592876
160195 0.829676
160196 1.07823
160197 1.34201
160200 1.66857
160201 1.55858
160203 1.32167
160205 0.829624
160208 0.471391
160211 0.293944
160215 0.194855
160218 0.138908
160224 0.0794330
160230 0.0511178
160236 0.0355792
160242 0.0261751
160254 0.0158766
160266 0.0106693
160279 0.00768015
160303 0.00455952
160327 0.00304940
160352 0.00220606
160401 0.00134676
160449 0.000939958
160498 0.000715788
160596 0.000489881
160693 0.000383835
160791 0.000325557
160986 0.000266652
161377 0.000222751
161767 0.000205778
163328 0.000182626
166451 0.000163464
169574 0.000151086
171136 0.000150930
171917 0.000170601
172112 0.000192998
172307 0.000257831
172405 0.000348564
172502 0.000605774
172551 0.000961544
172600 0.00195824
172624 0.00331842
172649 0.00705277
172661 0.0120188
172673 0.0251184
172679 0.0416656
172685 0.0820470
172691 0.226558
172694 0.480673
172696 0.779378
172697 1.38174
172699 2.20116
172700 2.76502
172701 2.57383
172701 2.20113
172703 1.38170
172704 0.752667
172706 0.440617
172709 0.200043
172713 0.110436
172716 0.0704459
172723 0.0353904
172729 0.0213636
172743 0.0101510
172756 0.00596179
172783 0.00280813
172809 0.00166620
172863 0.000828044
172916 0.000529020
173023 0.000312538
173129 0.000235961
173342 0.000180519
173556 0.000160644
174409 0.000139668
176115 0.000130880
179527 0.000123872
186351 0.000125733
189764 0.000141266
193176 0.000185359
194882 0.000234743
196588 0.000331137
197441 0.000416083
198294 0.000549607
199147 0.000773120
200000 0.00117587
200550 0.00161407
201100 0.00228417
201865 0.00364848
202630 0.00454386
203395 0.00359888
204160 0.00224838
205049 0.00130441
205939 0.000826296
206828 0.000569572
207717 0.000419893
209496 0.000263691
211274 0.000188713
213053 0.000147053
214831 0.000121444
218388 9.26912E-05
225502 6.89274E-05
232616 6.07603E-05
239730 6.03688E-05
246844 6.86665E-05
250401 7.85837E-05
253958 9.63887E-05
257515 0.000132406
259293 0.000175719
259738 0.000201208
260182 0.000258656
260405 0.000330229
260627 0.000522575
260738 0.000782292
260849 0.00149715
260905 0.00245921
260961 0.00505017
260988 0.00841459
261016 0.0169763
261030 0.0273115
261044 0.0509292
261058 0.123859
261065 0.228773
261068 0.331946
261072 0.493015
261076 0.787575
261080 0.983467
261082 0.925876
261084 0.787544
261088 0.492985
261093 0.278518
261098 0.170439
261108 0.0801536
261118 0.0457508
261128 0.0294282
261148 0.0150431
261168 0.00915647
261208 0.00446722
261247 0.00268633
261327 0.00134672
261406 0.000860213
261565 0.000506171
261723 0.000383296
262041 0.000301891
262358 0.000281603
263628 0.000314397
264898 0.000409449
266168 0.000577960
267438 0.000899305
268073 0.00117968
268708 0.00162064
269343 0.00236808
269978 0.00376667
270296 0.00495361
270613 0.00674009
270931 0.00951251
271248 0.0138334
271664 0.0221477
272080 0.0276436
272496 0.0220329
272912 0.0137580
273378 0.00803797
273844 0.00505398
274310 0.00342293
274775 0.00246353
275241 0.00186040
275707 0.00146049
276639 0.000985670
277571 0.000731583
278502 0.000586832
280366 0.000464746
282229 0.000489802
283161 0.000569541
284092 0.000733038
285024 0.00107193
285490 0.00137922
285956 0.00187361
286422 0.00273163
286887 0.00438471
287120 0.00582713
287353 0.00805636
287586 0.0116344
287819 0.0174363
288100 0.0278760
288380 0.0347975
288661 0.0277762
288941 0.0173595
289256 0.0101215
289572 0.00634753
289887 0.00428532
290202 0.00307055
290518 0.00230486
290833 0.00179454
291463 0.00118116
292094 0.000841776
292725 0.000634807
293986 0.000405667
295247 0.000287829
296508 0.000218963
299030 0.000145256
301552 0.000108754
304075 8.96738E-05
306597 9.01148E-05
307228 0.000102048
307858 0.000140850
308173 0.000196790
308489 0.000356361
308646 0.000576875
308804 0.00119068
308883 0.00202110
308962 0.00426979
309001 0.00720745
309040 0.0147491
309060 0.0239539
309080 0.0453254
309099 0.113675
309109 0.219065
309114 0.325318
309119 0.504263
309125 0.809372
309130 1.00769
309133 0.945390
309136 0.803427
309141 0.504230
309147 0.289070
309153 0.179925
309166 0.0852205
309178 0.0487650
309191 0.0313813
309216 0.0160511
309241 0.00973337
309291 0.00467727
309341 0.00275531
309441 0.00130330
309540 0.000773418
309740 0.000383951
309940 0.000244815
310339 0.000144488
310739 0.000110524
311538 0.000105087
311937 0.000186016
312137 0.000526489
312237 0.00184923
312287 0.00677039
312312 0.0238823
312325 0.0757566
312331 0.197134
312337 1.00741
312339 1.62280
312340 2.01146
312342 1.62279
312343 1.00411
312347 0.301499
312352 0.131322
312360 0.0457703
312377 0.0136261
312411 0.00376358
312480 0.00102990
312617 0.000309705
312890 0.000123214
313437 7.35183E-05
314531 5.77546E-05
316719 5.04944E-05
318907 5.03666E-05
319454 5.32813E-05
320001 6.28391E-05
320275 7.66964E-05
320548 0.000116506
320685 0.000171989
320822 0.000328372
320890 0.000543607
320958 0.00114021
320992 0.00194613
321027 0.00412145
321061 0.0141720
321078 0.0429783
321086 0.104827
321091 0.196804
321095 0.429517
321098 0.691118
321100 0.859246
321103 0.691105
321105 0.429504
321111 0.148274
321117 0.0694283
321129 0.0253396
321141 0.0129133
321153 0.00780016
321177 0.00373057
321201 0.00219288
321249 0.00103224
321297 0.000609839
321394 0.000299343
321490 0.000188537
321682 0.000108216
321874 7.97382E-05
322259 5.91106E-05
322643 5.17117E-05
324182 4.40168E-05
327258 4.15259E-05
333411 4.24842E-05
339564 5.01876E-05
341103 5.54607E-05
342641 6.73440E-05
343410 8.19452E-05
343795 9.58948E-05
344179 0.000120789
344564 0.000173072
344948 0.000317545
345141 0.000513245
345333 0.00104677
345429 0.00175148
345525 0.00358855
345573 0.00588068
345621 0.0113523
345670 0.0301180
345694 0.0617730
345706 0.0971740
345718 0.162911
345723 0.209295
345729 0.261396
345740 0.326398
345746 0.306636
345751 0.260444
345763 0.162890
345777 0.0875468
345792 0.0518442
345806 0.0336354
345821 0.0234513
345850 0.0131101
345879 0.00834398
345937 0.00422516
345996 0.00255614
346054 0.00171858
346112 0.00124151
346229 0.000745709
346345 0.000507142
346462 0.000374495
346695 0.000240120
346928 0.000177143
347161 0.000142931
347627 0.000109578
348559 8.88033E-05
349491 8.66065E-05
350423 9.41284E-05
351355 0.000119655
351821 0.000154565
352287 0.000251485
352520 0.000384340
352753 0.000755396
352869 0.00126168
352986 0.00265389
353044 0.00451262
353102 0.00942906
353161 0.0311179
353190 0.0875478
353204 0.194241
353212 0.328139
353219 0.604854
353224 0.973481
353230 1.21444
353236 0.966535
353241 0.604819
353251 0.275101
353260 0.147312
353279 0.0604661
353298 0.0323669
353317 0.0200688
353355 0.00986219
353393 0.00586487
353468 0.00278276
353544 0.00163994
353696 0.000793169
353847 0.000488609
354150 0.000268020
354453 0.000190787
355058 0.000137474
355664 0.000121347
358086 0.000121998
360508 0.000148258
362931 0.000193030
365353 0.000267449
367775 0.000398655
368987 0.000502911
369592 0.000570016
370198 0.000650104
370803 0.000746036
371409 0.000861048
372015 0.000998568
372620 0.00116153
373111 0.00131341
373603 0.00148163
374585 0.00184601
376550 0.00229484
377531 0.00217488
378021 0.00211149
378267 0.00235582
378328 0.00266241
378389 0.00353128
378420 0.00468893
378450 0.00767562
378481 0.0199493
378496 0.0476583
378504 0.0910874
378508 0.135353
378512 0.212158
378516 0.339049
378520 0.422229
378524 0.339037
378528 0.211888
378532 0.135337
378536 0.0910702
378544 0.0479852
378551 0.0294749
378559 0.0200979
378574 0.0113965
378589 0.00768935
378620 0.00464184
378650 0.00345114
378711 0.00252720
378772 0.00217194
379016 0.00174641
379504 0.00148088
380480 0.00114337
381290 0.000930160
381695 0.000841451
381897 0.000801392
381998 0.000783710
382049 0.000780731
382074 0.000801198
382087 0.000894956
382093 0.00123683
382099 0.0351714
382100 0.0695907
382101 0.0351711
382105 0.00159003
382110 0.000996135
382119 0.000821294
382138 0.000771795
382175 0.000753255
382249 0.000737156
382397 0.000711124
382694 0.000663674
383288 0.000580905
384476 0.000453109
386851 0.000294419
389226 0.000205718
391601 0.000152142
393976 0.000117849
396351 9.54472E-05
398726 8.48229E-05
399320 8.75486E-05
399914 0.000101672
400211 0.000124114
400508 0.000190203
400656 0.000282701
400805 0.000542253
400879 0.000895939
400953 0.00186305
400990 0.00314187
401027 0.00648563
401046 0.0106790
401064 0.0206937
401083 0.0554981
401092 0.115412
401097 0.182684
401102 0.311272
401106 0.498757
401110 0.622097
401114 0.498745
401118 0.310891
401129 0.0991558
401140 0.0449002
401151 0.0251446
401162 0.0159887
401184 0.00806117
401206 0.00486066
401250 0.00233553
401293 0.00138456
401380 0.000670033
401468 0.000410118
401642 0.000219496
401817 0.000151099
402166 0.000100870
402515 8.23823E-05
403214 6.77865E-05
403912 6.15427E-05
406706 5.35999E-05
408103 5.57786E-05
409500 6.94161E-05
410897 0.000154749
411595 0.000484611
411770 0.000806613
411944 0.00165508
412031 0.00272492
412119 0.00532872
412162 0.00830661
412206 0.0145949
412228 0.0207185
412250 0.0312659
412272 0.0510684
412293 0.0903388
412312 0.144567
412330 0.180400
412348 0.144231
412367 0.0900775
412380 0.0632834
412393 0.0457086
412406 0.0340629
412419 0.0261514
412446 0.0166123
412472 0.0113993
412498 0.00826920
412524 0.00626868
412577 0.00395196
412629 0.00271581
412682 0.00198368
412786 0.00119525
412996 0.000580271
413206 0.000349662
413626 0.000177184
414045 0.000114367
414884 6.78406E-05
415724 5.06630E-05
417402 3.72051E-05
419080 3.16100E-05
422437 2.73620E-05
423276 2.79379E-05
424115 3.14334E-05
424535 3.70938E-05
424954 5.39003E-05
425164 7.75808E-05
425374 0.000144754
425479 0.000237505
425584 0.000496353
425636 0.000848259
425689 0.00180458
425715 0.00306173
425741 0.00632001
425767 0.0198560
425780 0.0514871
425787 0.103365
425793 0.257158
425797 0.410746
425800 0.514412
425803 0.410738
425807 0.257151
425815 0.0846662
425823 0.0384998
425840 0.0137947
425856 0.00697786
425873 0.00419810
425906 0.00200429
425939 0.00117454
426005 0.000550951
426071 0.000324519
426203 0.000158519
426335 9.92722E-05
426599 5.62728E-05
426863 4.09673E-05
427391 2.97393E-05
427920 2.55740E-05
430033 2.06480E-05
434259 1.78250E-05
442712 1.55588E-05
446938 1.56705E-05
451164 1.80629E-05
453277 2.20743E-05
454334 2.61791E-05
455390 3.36706E-05
456447 4.94834E-05
456975 6.49953E-05
457503 9.28600E-05
458032 0.000151146
458296 0.000208024
458560 0.000309522
458824 0.000519097
458956 0.000720045
459088 0.00107060
459220 0.00176762
459286 0.00240715
459352 0.00347027
459418 0.00542993
459484 0.00960865
459550 0.0208440
459583 0.0344963
459600 0.0459363
459616 0.0622343
459630 0.0796388
459643 0.0995218
459670 0.124359
459683 0.117048
459697 0.0995075
459724 0.0622211
459771 0.0275816
459794 0.0196439
459817 0.0145783
459864 0.00884585
459911 0.00589945
459958 0.00420459
460005 0.00314613
460098 0.00195307
460192 0.00133397
460285 0.000973220
460473 0.000593168
460660 0.000410058
460847 0.000311190
461221 0.000225853
461596 0.000224186
461970 0.000333439
462158 0.000506726
462251 0.000677951
462345 0.000979644
462438 0.00158002
462485 0.00212946
462532 0.00303779
462579 0.00469255
462602 0.00607697
462626 0.00816354
462649 0.0114915
462672 0.0171793
462696 0.0276816
462719 0.0480472
462740 0.0769913
462760 0.0961796
462781 0.0768235
462801 0.0480369
462819 0.0311138
462837 0.0210242
462856 0.0149092
462874 0.0110492
462910 0.00668037
462946 0.00445300
462983 0.00317199
463019 0.00237560
463092 0.00147815
463164 0.00101131
463237 0.000738831
463382 0.000448997
463673 0.000224782
463963 0.000140258
464545 7.54539E-05
465126 5.06232E-05
466288 3.08380E-05
467451 2.28462E-05
469776 1.61657E-05
472101 1.33442E-05
476751 1.08742E-05
481401 9.75957E-06
490700 8.75948E-06
500000 8.63813E-06
506658 1.02014E-05
508323 1.19492E-05
509987 1.69462E-05
510820 2.39096E-05
511652 4.36607E-05
512068 7.10784E-05
512484 0.000148390
512692 0.000254897
512900 0.000551406
513004 0.000953651
513108 0.00204529
513160 0.00347678
513212 0.00717322
513264 0.0223848
513290 0.0573227
513303 0.112671
513316 0.273424
513323 0.436824
513330 0.546826
513337 0.436810
513344 0.273410
513363 0.0801371
513382 0.0348999
513420 0.0120744
513459 0.00602053
513497 0.00359227
513573 0.00169701
513650 0.000986380
513803 0.000455795
513956 0.000263602
514263 0.000123274
514569 7.33226E-05
515182 3.72716E-05
515795 2.45684E-05
517021 1.54960E-05
518246 1.23733E-05
520697 1.03364E-05
523149 9.99529E-06
525600 1.05730E-05
528051 1.29479E-05
529277 1.63900E-05
530502 2.62007E-05
531115 3.98336E-05
531728 7.83514E-05
532034 0.000131539
532341 0.000280345
532494 0.000483159
