K-39(n,tot) ENDF/B-VII.1
Energy(eV) XS(b)
1.00000E-05 109.086
1.25000E-05 97.7890
1.50000E-05 89.4495
2.00000E-05 77.7433
2.75000E-05 66.6047
3.50000E-05 59.2740
4.25000E-05 53.9818
5.00000E-05 49.9303
6.25000E-05 44.8775
7.50000E-05 41.1476
0.000100000 35.9119
0.000125000 32.3388
0.000150000 29.7012
0.000200000 25.9988
0.000275000 22.4759
0.000350000 20.1574
0.000425000 18.4835
0.000500000 17.2021
0.000625000 15.6039
0.000750000 14.4242
0.00100000 12.7681
0.00125000 11.6380
0.00150000 10.8037
0.00200000 9.63256
0.00275000 8.51820
0.00350000 7.78478
0.00425000 7.25529
0.00500000 6.84992
0.00625000 6.34435
0.00750000 5.97113
0.0100000 5.44723
0.0125000 5.08967
0.0150000 4.82571
0.0200000 4.45516
0.0253000 4.18951
0.0314750 3.96912
0.0376500 3.80544
0.0500000 3.57440
0.0625000 3.41430
0.0750000 3.29609
0.100000 3.13008
0.125000 3.01672
0.150000 2.93298
0.200000 2.81531
0.275000 2.70314
0.350000 2.62912
0.500000 2.53438
0.750000 2.44456
1.00000 2.39032
1.50000 2.32463
2.00000 2.28415
2.75000 2.24388
3.50000 2.21578
5.00000 2.17666
7.50000 2.13349
10.0000 2.10211
15.0000 2.05420
20.0000 2.01581
27.5000 1.96723
35.0000 1.92519
50.0000 1.85340
75.0000 1.75710
100.000 1.68008
150.000 1.56299
200.000 1.47746
275.000 1.38448
350.000 1.31739
500.000 1.22591
625.000 1.17396
750.000 1.13446
875.000 1.10299
937.500 1.08944
1000.00 1.07713
1027.85 1.07210
1055.70 1.06764
1069.62 1.06600
1083.54 1.06595
1090.51 1.06806
1093.99 1.07076
1097.47 1.07620
1100.95 1.08846
1102.69 1.10089
1104.43 1.12358
1105.30 1.14264
1106.17 1.17151
1107.04 1.21824
1107.91 1.30115
1108.35 1.36903
1108.78 1.46971
1109.22 1.62820
1109.65 1.89852
1110.09 2.41553
1110.30 2.87220
1110.52 3.59473
1110.74 4.84358
1110.96 7.22228
1111.07 9.29713
1111.17 12.4951
1111.28 17.6113
1111.39 25.7799
1111.52 40.6436
1111.66 50.5671
1111.79 40.6526
1111.92 25.7912
1112.03 17.5630
1112.14 12.5048
1112.25 9.30572
1112.35 7.24534
1112.57 4.85724
1112.79 3.60812
1113.00 2.88142
1113.22 2.42397
1113.65 1.90509
1114.09 1.63273
1114.52 1.47293
1114.96 1.37132
1115.39 1.30288
1116.26 1.21890
1117.12 1.17145
1117.99 1.14199
1118.86 1.12244
1120.59 1.09886
1122.33 1.08566
1125.80 1.07202
1129.27 1.06529
1132.73 1.06134
1139.67 1.05681
1153.55 1.05212
1167.43 1.04905
1195.18 1.04411
1222.93 1.03970
1278.44 1.03150
1333.94 1.02380
1555.96 0.996500
2000.00 0.952651
2639.50 0.903134
2799.38 0.892236
2959.25 0.881780
3119.13 0.871974
3159.09 0.869877
3199.06 0.868554
3219.05 0.868940
3239.03 0.872314
3249.02 0.878085
3254.02 0.884140
3259.02 0.895419
3264.01 0.919710
3266.51 0.943820
3269.01 0.987361
3270.26 1.02362
3271.51 1.07831
3272.75 1.16635
3274.00 1.32145
3274.63 1.44773
3275.25 1.63362
3275.88 1.92436
3276.50 2.41389
3277.13 3.33572
3277.44 4.13187
3277.75 5.37316
3278.06 7.45846
3278.38 11.2744
3278.53 14.4468
3278.69 19.1263
3278.84 26.2054
3279.00 36.9226
3279.22 58.6068
3279.43 72.9713
3279.65 58.4999
3279.87 36.9228
3280.08 23.4117
3280.29 15.6936
3280.50 11.1753
3280.71 8.38288
3280.92 6.56238
3281.13 5.31923
3281.55 3.78936
3281.97 2.92501
3282.39 2.39166
3283.23 1.79700
3284.07 1.49125
3284.91 1.31385
3285.75 1.20193
3286.59 1.12685
3288.27 1.03552
3289.95 0.984192
3293.31 0.931562
3296.67 0.906426
3300.03 0.892453
3306.75 0.878152
3320.19 0.867244
3333.62 0.862848
3360.50 0.858636
3387.38 0.856099
3441.13 0.852205
3494.89 0.848754
3709.90 0.835813
4139.94 0.810837
5000.00 0.760718
6090.33 0.688700
6635.49 0.643664
7180.65 0.586221
7725.81 0.505549
7998.39 0.449744
8270.98 0.376798
8407.27 0.331434
8543.56 0.278783
8679.85 0.218990
8816.14 0.157478
8884.28 0.132910
8952.43 0.123716
8986.50 0.131203
9020.57 0.153227
9054.65 0.198591
9088.72 0.282248
9122.79 0.430785
9156.87 0.694131
9190.94 1.17303
9207.97 1.55432
9225.01 2.09074
9242.05 2.86336
9259.08 4.00944
9276.12 5.77436
9293.16 8.62501
9310.19 13.5204
9327.23 22.6088
9335.75 30.1409
9344.26 41.1283
9352.78 57.4376
9361.30 81.5721
9374.87 138.467
9388.44 181.273
9402.01 151.668
9415.58 100.108
9424.71 74.7309
9433.84 57.0049
9442.98 44.6824
9452.11 35.9558
9470.37 24.8922
9488.63 18.4750
9506.90 14.4353
9525.16 11.7240
9561.69 8.40454
9598.21 6.50629
9634.74 5.30557
9671.26 4.48969
9707.79 3.90500
9780.84 3.13184
9853.90 2.64965
9926.95 2.32323
10000.0 2.08891
10174.8 1.73105
10262.2 1.61338
10306.0 1.56420
10327.8 1.54191
10338.7 1.53249
10344.2 1.53281
10346.9 1.55147
10348.3 1.62786
10349.0 1.88373
10349.3 2.60028
10349.5 4.10916
10349.6 6.47052
10349.7 12.7464
10349.7 19.5481
10349.8 23.9646
10349.8 19.5440
10349.9 12.7360
10349.9 7.90779
10350.0 5.42000
10350.1 3.43660
10350.3 2.24800
10350.8 1.74803
10351.6 1.58218
10353.4 1.53308
10356.9 1.51710
10364.0 1.50731
10378.1 1.49364
10406.3 1.46889
10462.7 1.42405
10575.6 1.34849
10801.3 1.23642
11252.8 1.09718
11704.3 1.01186
11930.0 0.978615
12042.9 0.961163
12071.1 0.955539
12099.3 0.947818
12127.5 0.932450
12141.6 0.912012
12148.7 0.894352
12152.2 0.934910
12153.1 1.00992
12154.0 1.25291
12154.4 1.59265
12154.8 2.46101
12155.1 3.46321
12155.3 5.54456
12155.4 7.48880
12155.5 10.6901
12155.6 16.2603
12155.7 26.3583
12155.8 43.9108
12156.0 56.0479
12156.1 47.5184
12156.2 30.6261
12156.3 20.0182
12156.4 13.8712
12156.5 9.94160
12156.6 7.71757
12156.9 5.12606
12157.1 3.81390
12157.6 2.58283
12158.0 2.04381
12158.9 1.56801
12159.8 1.36576
12161.7 1.19222
12163.5 1.11841
12167.1 1.05334
12170.8 1.02433
12178.1 0.997407
12185.3 0.984535
12199.9 0.971553
12214.5 0.964548
12243.7 0.956203
12272.8 0.950619
12331.2 0.942237
12389.5 0.935387
12506.1 0.924742
12535.3 0.923928
12564.5 0.927670
12579.0 0.936111
12593.6 0.964025
12600.9 1.00505
12604.6 1.04674
12608.2 1.12294
12611.8 1.28493
12613.7 1.44294
12615.5 1.72315
12616.4 1.95511
12617.3 2.29532
12618.2 2.82858
12619.1 3.73154
12620.0 5.43663
12620.5 6.93671
12621.0 9.23187
12621.4 13.1769
12621.9 20.2893
12622.1 26.3560
12622.3 35.3856
12622.6 49.1878
12622.8 69.1962
12623.1 111.401
12623.4 138.552
12623.7 110.225
12624.0 69.6061
12624.2 50.3820
12624.4 37.8252
12624.9 22.7934
12625.3 15.1297
12625.7 10.8188
12626.1 8.18661
12626.5 6.47201
12627.3 4.47514
12628.1 3.37859
12628.9 2.72143
12630.6 2.01017
12632.2 1.64947
12633.8 1.44370
12637.1 1.22738
12640.4 1.12189
12643.7 1.06238
12650.2 1.00073
12663.3 0.953586
12676.3 0.935369
12702.5 0.920114
12728.7 0.912982
12781.0 0.904836
12833.3 0.899169
12937.9 0.889987
13042.5 0.881940
13251.7 0.867455
13461.0 0.854361
13670.2 0.842306
13879.4 0.831133
14088.7 0.821007
14193.3 0.817662
14245.6 0.821879
14258.7 0.828101
14271.7 0.846667
14278.3 0.872667
14284.8 0.945200
14288.1 1.04305
14289.7 1.13848
14291.4 1.30627
14293.0 1.64861
14293.8 1.97033
14294.6 2.51004
14295.5 3.54964
14295.9 4.46329
14296.3 5.86726
14296.7 8.31467
14297.1 12.9541
14297.3 17.0616
14297.5 23.0193
14297.7 32.3014
14297.9 46.8532
14298.2 74.8275
14298.4 93.6373
14298.7 74.8442
14298.9 46.8602
14299.1 31.7298
14299.3 22.6520
14299.5 16.8189
14299.7 12.9476
14300.2 8.30812
14300.6 5.90594
14301.0 4.45777
14301.4 3.56264
14302.2 2.52355
14303.0 1.97664
14303.8 1.65454
14305.4 1.31189
14307.0 1.14118
14308.6 1.04510
14311.9 0.945569
14318.3 0.871371
14324.8 0.844401
14337.7 0.824383
14350.6 0.816905
14402.3 0.807854
14505.7 0.801555
14712.5 0.792209
14919.3 0.783576
15126.1 0.775329
15332.9 0.767419
15539.7 0.759911
15746.5 0.753679
15798.2 0.753176
15849.9 0.755176
15875.7 0.759599
15901.6 0.773744
15914.5 0.794029
15921.0 0.814326
15927.4 0.851217
15933.9 0.928909
15937.1 1.00473
15940.4 1.13947
15943.6 1.41437
15945.2 1.67498
15946.8 2.11892
15948.4 2.98057
15949.3 3.74770
15950.1 4.96144
15950.9 7.10160
15951.7 11.2950
15952.1 15.0847
15952.5 20.9171
15952.9 30.4779
15953.3 46.3769
15953.7 73.9615
15954.2 91.7864
15954.7 73.3500
15955.1 46.3984
15955.5 31.4269
15955.8 22.0701
15956.2 16.1757
15956.6 12.3283
15957.3 7.87657
15958.1 5.53965
15958.8 4.17709
15959.5 3.31812
15961.0 2.34555
15962.5 1.83159
15964.0 1.52998
15966.9 1.20955
15969.9 1.05093
15972.8 0.961582
15978.7 0.869412
15984.6 0.825175
15990.6 0.800580
16002.4 0.775512
16026.0 0.756718
16049.6 0.749506
16096.9 0.743248
16144.1 0.739975
16333.2 0.731828
16522.2 0.724883
16616.7 0.721441
16663.9 0.720910
16687.6 0.728246
16699.4 0.766976
16702.3 0.809011
16705.3 0.927854
16706.8 1.08943
16708.2 1.51587
16709.0 2.05788
16709.7 3.37422
16710.1 4.86625
16710.5 7.98119
16710.7 11.0486
16710.8 15.9629
16711.0 24.7384
16711.2 40.9987
16711.4 65.4210
16711.5 81.8058
16711.7 65.6906
16711.9 41.4241
16712.0 30.3634
16712.1 23.3176
16712.3 14.7101
16712.5 10.0767
16712.7 7.37142
16713.1 4.54977
16713.5 3.20117
16714.3 1.99725
16715.1 1.50420
16716.7 1.10483
16718.3 0.951198
16721.5 0.832195
16724.7 0.787302
16731.1 0.752868
16737.6 0.739700
16763.3 0.724835
16814.6 0.718651
16917.4 0.713683
17122.9 0.706378
17533.9 0.692937
18355.9 0.666670
20000.0 0.611463
21239.4 0.561767
22478.9 0.493989
23098.6 0.445333
23408.4 0.414109
23718.3 0.375798
24028.2 0.327228
24338.0 0.263580
24492.9 0.224319
24647.9 0.180274
24725.3 0.158145
24802.8 0.141167
24841.5 0.140863
24860.9 0.147062
24880.3 0.163489
24899.6 0.204692
24909.3 0.247384
24919.0 0.324768
24928.7 0.483507
24933.5 0.632299
24938.4 0.884346
24943.2 1.36031
24945.6 1.77363
24948.0 2.42081
24950.5 3.51021
24952.9 5.52713
24954.1 7.22017
24955.3 9.74138
24956.5 13.6017
24957.7 19.5278
24959.4 31.1538
24961.0 38.9145
24962.6 31.1543
24964.2 19.4833
24965.3 14.1036
24966.4 10.4205
24968.5 6.15893
24970.7 3.99863
24972.8 2.78929
24974.9 2.05382
24977.1 1.57641
24981.4 1.01877
24985.6 0.717848
24989.9 0.538038
24998.5 0.343355
25007.0 0.245474
25015.6 0.189410
25032.7 0.130683
25049.8 0.102382
25066.9 0.0873265
25101.1 0.0767357
25135.3 0.0830728
25169.5 0.106180
25203.8 0.151785
25238.0 0.231245
25272.2 0.364837
25306.4 0.589009
25340.6 0.972796
25374.8 1.65598
25409.1 2.94956
25426.2 4.03108
25443.3 5.62322
25460.4 8.04454
25477.5 11.8507
25494.6 18.0119
25511.7 28.0338
25534.7 49.2211
25557.6 66.4328
25580.6 57.1936
25603.6 38.7927
25625.1 26.6117
25646.6 19.1056
25668.1 14.4182
25689.7 11.3559
25732.7 7.76175
25775.7 5.81188
25818.7 4.62713
25861.8 3.84687
25947.8 2.90109
26033.9 2.35996
26119.9 2.01451
26206.0 1.77675
26292.0 1.60390
26464.1 1.37040
26636.2 1.22038
26808.3 1.11586
26980.4 1.03872
27324.6 0.931832
27668.8 0.860416
28013.0 0.808532
28185.1 0.787502
28271.1 0.778459
28314.2 0.776118
28335.7 0.782113
28346.4 0.810470
28351.8 0.909260
28354.5 1.20164
28355.8 1.86867
28356.5 2.92200
28356.9 4.04910
28357.2 5.96829
28357.5 9.06247
28357.9 11.1436
28358.2 9.05930
28358.6 5.94928
28359.1 3.48015
28359.5 2.34762
28360.5 1.46602
28362.4 1.00841
28366.1 0.837460
28373.7 0.784818
28388.8 0.769277
28419.0 0.762766
28479.4 0.756046
28600.2 0.744591
28841.9 0.723975
29325.2 0.688913
30291.9 0.633795
30775.2 0.610592
31258.6 0.589065
31741.9 0.568454
31983.6 0.557885
32104.4 0.552452
32164.8 0.554025
32195.0 0.581488
32202.6 0.614576
32210.1 0.711644
32213.9 0.844849
32217.7 1.19642
32219.6 1.63390
32221.5 2.65871
32222.4 3.77380
32223.4 5.93240
32223.8 7.83966
32224.3 10.8219
32224.8 15.6773
32225.2 23.6758
32225.8 37.7588
32226.3 47.2143
32226.9 38.1215
32227.4 24.2724
32228.0 15.1846
32228.5 10.1705
32229.1 7.25613
32229.6 5.46153
32230.7 3.49498
32231.8 2.51080
32234.1 1.60283
32236.3 1.21376
32240.7 0.890484
32245.1 0.761517
32253.9 0.658970
32262.7 0.618786
32280.3 0.586448
32298.0 0.573225
32333.2 0.561672
32368.5 0.556194
32509.6 0.546480
32650.6 0.541451
32791.7 0.538917
32932.7 0.540887
33003.3 0.545813
33073.8 0.557108
33109.0 0.567533
33144.3 0.584075
33179.6 0.611820
33214.8 0.662429
33232.5 0.704638
33250.1 0.768049
33267.7 0.869379
33285.4 1.04561
33303.0 1.39249
33311.8 1.70759
33320.6 2.22415
33329.4 3.15697
33333.9 3.93001
33338.3 5.08110
33342.7 6.89706
33347.1 9.94526
33351.5 15.4291
33355.9 25.6657
33360.0 40.7662
33364.0 50.8687
33368.1 40.8062
33372.2 25.6770
33376.2 15.9642
33380.3 10.5364
33384.4 7.41354
33388.5 5.50764
33392.6 4.27643
33396.6 3.44143
33404.8 2.42105
33413.0 1.84855
33421.1 1.49691
33437.4 1.10650
33453.8 0.906454
33470.1 0.790528
33486.4 0.717360
33502.7 0.668202
33535.4 0.608035
33568.0 0.573783
33600.6 0.552207
33633.3 0.537558
33698.5 0.519016
33763.8 0.507619
33894.4 0.493505
34024.9 0.484040
34155.4 0.476398
34416.5 0.463217
35460.9 0.414759
35983.1 0.389317
36505.3 0.362296
37027.4 0.334710
37158.0 0.329261
37288.5 0.328453
37353.8 0.334759
37386.4 0.343221
37419.1 0.360466
37451.7 0.399535
37468.0 0.438957
37484.3 0.510112
37492.5 0.569001
37500.7 0.656912
37508.8 0.796062
37517.0 1.03456
37525.1 1.49263
37529.2 1.89707
37533.3 2.54076
37537.4 3.64884
37541.5 5.76891
37543.5 7.60814
37545.5 10.4352
37547.6 14.9407
37549.6 22.1387
37552.1 35.3216
37554.6 44.1370
37557.1 35.4181
37559.6 22.2996
37561.2 16.4956
37562.7 12.4382
37565.9 7.61925
37569.0 5.10754
37572.1 3.67434
37575.2 2.79068
37578.3 2.21109
37584.6 1.52557
37590.8 1.15258
37597.1 0.928026
37609.5 0.683818
37622.0 0.563008
37634.5 0.502218
37647.0 0.512955
37653.2 0.691533
37654.8 0.864954
37656.3 1.29086
37657.1 1.77830
37657.9 2.81014
37658.7 5.53566
37659.0 8.77306
37659.4 14.9482
37659.8 23.6490
37660.1 29.4570
37660.4 23.6311
37660.7 14.8923
37661.0 9.68350
37661.3 6.69289
37661.9 3.67670
37662.5 2.36586
37663.1 1.69776
37664.3 1.07739
37665.5 0.809486
37667.8 0.588448
37670.2 0.500875
37679.6 0.400480
37698.5 0.358118
37736.2 0.328768
37811.6 0.303981
37887.0 0.290926
37962.4 0.281626
38113.2 0.266920
38264.0 0.253930
38565.7 0.228753
38867.3 0.202827
39470.6 0.146662
40073.9 0.0858830
40375.5 0.0567919
40677.2 0.0340238
40828.0 0.0281122
40978.8 0.0290085
41054.2 0.0332383
41129.6 0.0409320
41205.0 0.0530614
41280.4 0.0708983
41355.9 0.0961242
41431.3 0.130987
41582.1 0.242919
41732.9 0.447925
41883.7 0.829750
41959.1 1.13768
42034.5 1.57357
42110.0 2.20305
42185.4 3.13404
42260.8 4.54911
42336.2 6.76302
42411.6 10.3120
42487.0 16.0139
42594.0 28.8438
42701.0 39.7353
42808.5 34.8561
42916.0 24.0814
42985.1 18.7305
43054.1 14.8335
43192.2 9.97384
43330.3 7.27787
43468.4 5.64836
43606.5 4.58769
43744.6 3.85545
44020.8 2.92816
44297.0 2.37634
44573.2 2.01620
44849.4 1.76677
44987.5 1.67110
45056.5 1.63077
45091.0 1.61717
45108.3 1.62814
45116.9 1.69221
45121.2 1.90640
45123.4 2.48203
45124.5 3.62434
45125.0 5.14777
45125.6 8.57539
45125.9 12.7372
45126.3 15.4632
45126.7 12.6908
45127.0 8.48209
45127.5 5.48401
45127.9 3.98138
45128.8 2.70341
45130.5 1.98553
45133.9 1.70093
45140.8 1.60969
45154.6 1.57952
45182.1 1.56057
45237.2 1.53402
45347.3 1.49047
45457.4 1.46007
45567.5 1.45054
45677.6 1.48467
45732.7 1.53827
45787.8 1.64715
45842.8 1.88108
45870.4 2.10143
45897.9 2.46924
45925.4 3.14028
45939.2 3.69952
45952.9 4.53598
45966.7 5.85635
45980.5 8.07293
45994.2 12.0640
46008.0 19.5283
46020.8 30.5709
46033.5 37.9634
46046.2 30.6508
46058.9 19.6285
46066.6 14.8619
46074.3 11.4934
46089.7 7.44174
46105.1 5.29944
46120.5 4.06645
46135.9 3.30040
46151.3 2.79531
46182.1 2.19287
46212.9 1.86088
46243.6 1.65772
46305.2 1.42914
46366.8 1.30663
46428.4 1.23041
46551.5 1.13820
46674.7 1.08076
46797.9 1.03853
47044.2 0.975004
47290.5 0.925226
47536.8 0.882856
48029.5 0.811231
49014.7 0.696530
50000.0 0.600319
51087.2 0.501695
51630.8 0.454115
51766.8 0.444246
51902.7 0.440322
51970.6 0.446982
52004.6 0.457154
52038.6 0.478636
52072.5 0.528043
52089.5 0.577926
52106.5 0.667358
52123.5 0.848836
52132.0 1.01738
52140.5 1.29873
52149.0 1.81829
52153.2 2.25759
52157.5 2.92372
52161.7 3.99977
52166.0 5.85868
52170.2 9.36051
52174.5 16.2868
52178.1 25.9543
52181.7 32.4057
52185.3 26.0547
52188.9 16.5188
52193.1 9.59250
52197.4 6.07394
52201.7 4.18728
52205.9 3.08944
52210.2 2.40293
52214.4 1.94779
52223.0 1.40317
52231.5 1.10296
52240.0 0.920180
52257.0 0.717895
52274.1 0.613711
52291.1 0.552544
52325.2 0.486131
52359.3 0.451565
52393.3 0.430398
52461.5 0.404989
52597.8 0.376974
52734.1 0.357722
53006.7 0.325480
53279.3 0.295290
53824.6 0.236872
53960.9 0.223674
54097.2 0.212674
54233.5 0.207900
54301.6 0.214073
54335.7 0.231589
54352.8 0.278854
54361.3 0.419020
54365.5 0.813981
54367.7 1.72278
54368.7 3.19861
54369.3 4.80683
54369.8 7.78745
54370.3 12.1693
54370.8 15.1526
54371.3 12.0791
54371.8 7.56867
54372.3 4.66434
54372.8 3.07661
54373.8 1.60203
54375.9 0.715959
54379.9 0.354322
54388.0 0.245354
54404.1 0.223602
54436.4 0.233842
54468.7 0.258685
54501.1 0.303868
54533.4 0.394710
54549.5 0.478361
54565.7 0.617586
54581.8 0.875193
54589.9 1.09487
54598.0 1.43279
54606.1 1.99045
54614.1 2.99204
54618.2 3.81066
54622.2 4.99912
54626.3 6.76328
54630.3 9.37220
54636.2 14.8441
54642.1 18.5138
54647.9 14.8548
54653.8 9.33785
54657.6 6.86422
54661.3 5.15781
54668.8 3.15901
54676.2 2.14024
54683.7 1.57490
54691.2 1.23918
54698.6 1.03308
54713.6 0.835697
54728.5 0.820898
54743.4 0.996590
54750.9 1.20528
54758.4 1.56710
54765.8 2.20824
54773.3 3.34942
54781.0 5.17734
54788.6 6.40073
54796.3 5.15098
54803.9 3.27141
54809.1 2.38313
54814.3 1.78285
54824.6 1.09571
54835.0 0.750265
54845.3 0.556922
54866.0 0.360502
54886.7 0.267249
54928.1 0.181899
54969.5 0.143128
55010.9 0.121180
55052.3 0.107743
55093.7 0.103870
55114.4 0.121434
55124.7 0.188478
55129.9 0.396964
55132.5 0.955840
55133.8 2.09270
55134.4 3.69398
55135.1 7.51149
55135.5 11.9003
55135.9 14.7291
55136.3 11.6986
55136.7 7.30038
55137.3 3.58726
55137.9 2.02873
55139.0 0.886736
55141.4 0.332281
55146.2 0.140021
55155.6 0.0867484
55174.6 0.0727983
55212.5 0.0657027
55288.2 0.0557173
55439.8 0.0398243
55591.3 0.0305618
55667.1 0.0360258
55705.0 0.0664797
55714.5 0.0958531
55724.0 0.172833
55728.7 0.270445
55733.4 0.510168
55735.8 0.788164
55738.2 1.38641
55739.4 1.97879
55740.5 3.01144
55741.7 4.99047
55742.3 6.65241
55742.9 9.02376
55743.9 14.5402
55744.8 18.1911
55745.8 14.5723
55746.8 9.19983
55747.8 5.58330
55748.8 3.61410
55749.8 2.50233
55750.8 1.83226
55752.9 1.11383
55754.9 0.762910
55759.0 0.450368
55763.1 0.324956
55771.2 0.246498
55779.4 0.262998
55787.6 0.365750
55791.6 0.476301
55795.7 0.670876
55799.8 1.04541
55801.8 1.37262
55803.9 1.88507
55805.9 2.74435
55808.0 4.31922
55809.0 5.62456
55810.0 7.54244
55811.0 10.4273
55812.0 14.7651
55813.5 23.7543
55815.0 29.7866
55816.4 23.8970
55817.9 15.0276
55818.8 11.1766
55819.6 8.48328
55821.4 5.21303
55823.2 3.47922
55824.9 2.48193
55826.7 1.85690
55828.5 1.44582
55832.0 0.953195
55835.5 0.681446
55839.1 0.516676
55846.1 0.334456
55860.3 0.186149
55874.4 0.127817
55902.7 0.0823139
55930.9 0.0655887
55987.4 0.0555724
56043.9 0.0565110
56157.0 0.0729638
56270.0 0.105198
56383.1 0.155928
56496.1 0.231235
56609.1 0.340650
56665.6 0.413069
56693.9 0.457973
56708.0 0.495271
56715.1 0.560041
56718.6 0.723164
56720.4 1.08110
56721.3 1.62406
56722.2 3.11045
56723.1 5.74487
56724.1 3.13420
56725.0 1.66642
56725.8 1.11477
56727.6 0.753654
56731.0 0.594136
56738.0 0.548478
56751.8 0.555863
56779.5 0.603782
56834.8 0.723339
56945.6 1.04193
57056.3 1.50506
57167.1 2.18730
