Ti-46(n,tot) ENDF/B-VII.1
Energy(eV) XS(b)
1.00000E-05 32.3599
1.25000E-05 29.2289
1.50000E-05 26.9177
2.00000E-05 23.6736
2.75000E-05 20.5867
3.50000E-05 18.5552
4.25000E-05 17.0887
5.00000E-05 15.9659
6.25000E-05 14.5657
7.50000E-05 13.5321
0.000100000 12.0813
0.000125000 11.0912
0.000150000 10.3603
0.000200000 9.33440
0.000275000 8.35826
0.000350000 7.71584
0.000425000 7.25207
0.000500000 6.89703
0.000625000 6.45424
0.000750000 6.12739
0.00100000 5.66859
0.00125000 5.35549
0.00150000 5.12437
0.00200000 4.79996
0.00275000 4.49127
0.00350000 4.28812
0.00425000 4.14146
0.00500000 4.02919
0.00625000 3.88917
0.00750000 3.78581
0.0100000 3.64072
0.0125000 3.54171
0.0150000 3.46863
0.0200000 3.36603
0.0253000 3.29249
0.0314750 3.23150
0.0376500 3.18621
0.0500000 3.12229
0.0625000 3.07801
0.0750000 3.04532
0.100000 2.99943
0.125000 2.96811
0.150000 2.94499
0.200000 2.91254
0.275000 2.88165
0.350000 2.86131
0.500000 2.83537
0.750000 2.81096
1.00000 2.79638
1.50000 2.77902
2.00000 2.76862
2.75000 2.75864
3.50000 2.75200
5.00000 2.74338
7.50000 2.73497
10.0000 2.72967
15.0000 2.72279
20.0000 2.71812
27.5000 2.71289
35.0000 2.70872
50.0000 2.70187
75.0000 2.69235
100.000 2.68384
150.000 2.66808
200.000 2.65312
275.000 2.63143
350.000 2.61029
500.000 2.56910
750.000 2.50285
1000.00 2.43902
1500.00 2.31752
2000.00 2.20312
2994.89 1.99262
3492.34 1.89422
3741.06 1.84638
3865.42 1.82278
3927.60 1.81112
3958.69 1.80559
3974.23 1.80393
3982.01 1.80732
3985.89 1.82469
3986.87 1.84203
3987.84 1.88760
3988.32 1.94474
3988.81 2.08221
3989.05 2.23693
3989.29 2.55803
3989.42 2.86392
3989.54 3.37571
3989.66 4.30044
3989.78 6.04106
3989.89 8.59046
3990.00 10.2660
3990.11 8.56399
3990.22 6.03852
3990.35 4.26741
3990.47 3.34628
3990.59 2.83703
3990.72 2.53907
3990.96 2.22435
3991.21 2.07370
3991.70 1.93964
3992.19 1.88393
3993.18 1.83933
3994.17 1.82219
3998.11 1.80398
4006.00 1.79784
4021.78 1.79369
4053.33 1.78748
4116.44 1.77562
4242.67 1.75214
4495.11 1.70563
5000.00 1.61390
6632.39 1.31664
7448.58 1.15452
7856.68 1.06462
8060.73 1.01626
8162.75 0.991020
8213.77 0.978146
8239.27 0.971784
8252.03 0.969141
8258.40 0.969855
8261.59 0.977513
8263.18 1.00554
8263.98 1.08757
8264.38 1.27052
8264.58 1.54840
8264.78 2.30404
8265.00 3.63513
8265.22 2.29594
8265.43 1.51653
8265.65 1.24461
8266.07 1.07320
8266.92 0.998761
8268.61 0.973476
8272.00 0.965467
8278.77 0.961837
8292.33 0.957839
8319.43 0.950599
8373.65 0.936097
8482.07 0.906260
8698.92 0.842634
9132.61 0.694578
9566.31 0.505231
9783.15 0.388327
10000.0 0.254043
10253.8 0.0868221
10317.2 0.0509322
10380.6 0.0239107
10412.4 0.0159248
10444.1 0.0133949
10475.8 0.0182259
10507.5 0.0329968
10523.4 0.0451743
10539.2 0.0612649
10570.9 0.107964
10602.7 0.180066
10634.4 0.287595
10666.1 0.445254
10697.8 0.675126
10729.5 1.01130
10761.3 1.50794
10793.0 2.25539
10824.7 3.40977
10856.4 5.25780
10888.1 8.36319
10919.9 13.9326
10935.7 18.4140
10951.6 24.8304
10967.4 34.2878
10983.3 48.6535
10999.2 71.0304
11015.0 105.968
11037.5 182.166
11060.0 243.932
11082.5 209.392
11105.0 140.403
11123.8 98.6482
11142.7 71.7395
11161.5 54.3417
11180.3 42.7175
11218.0 28.8129
11255.7 21.1728
11293.3 16.5145
11331.0 13.4499
11406.3 9.75521
11481.7 7.66385
11557.0 6.34530
11707.7 4.81121
11858.3 3.98311
11933.7 3.72015
12009.0 3.54553
12084.3 3.49305
12122.0 3.55245
12159.6 3.73604
12197.3 4.20650
12216.1 4.69006
12235.0 5.55203
12253.8 7.26637
12263.2 8.82017
12272.6 11.3490
12282.1 15.8499
12286.8 19.5192
12291.5 24.8920
12296.2 33.1704
12300.9 46.6121
12305.6 69.6788
12310.3 110.189
12315.2 175.106
12320.0 218.411
12324.9 174.862
12329.7 110.021
12335.1 65.1159
12340.6 41.6649
12346.0 28.8366
12351.4 21.2752
12356.9 16.5075
12362.3 13.3295
12373.1 9.50922
12384.0 7.39595
12394.9 6.10704
12416.6 4.67830
12438.3 3.94017
12460.0 3.50444
12481.7 3.22181
12503.5 3.02514
12546.9 2.76899
12590.3 2.60713
12677.2 2.40471
12764.1 2.27344
12850.9 2.17488
13024.7 2.02669
13198.4 1.91402
13372.2 1.82241
13459.0 1.78240
13545.9 1.74583
13632.8 1.71446
13676.2 1.70937
13687.1 1.71635
13697.9 1.74238
13703.4 1.78079
13708.8 1.88940
13711.5 2.03698
13712.9 2.18104
13714.2 2.43492
13715.6 2.95741
13716.3 3.45331
13716.9 4.29233
13717.6 5.94324
13718.0 7.42585
13718.3 9.83284
13718.6 14.1057
13718.8 17.5885
13719.0 22.7040
13719.2 30.5803
13719.3 43.3840
13719.5 65.3618
13719.7 101.021
13719.8 162.243
13720.0 199.889
13720.2 158.222
13720.4 100.526
13720.5 68.3986
13720.6 48.2089
13720.8 35.4263
13720.9 27.0503
13721.2 17.3218
13721.5 12.3349
13721.7 9.28779
13722.0 7.42509
13722.6 5.24624
13723.1 4.09960
13723.7 3.42472
13724.8 2.70477
13725.9 2.34981
13727.0 2.14945
13729.2 1.94357
13733.6 1.79089
13738.0 1.73581
13746.8 1.69451
13755.6 1.67831
13790.8 1.65410
13861.3 1.62800
13931.7 1.60513
14002.2 1.58349
14284.0 1.50554
14847.7 1.37919
15975.1 1.19451
17102.4 1.05738
17666.1 0.999148
17947.9 0.971929
18088.8 0.958750
18159.3 0.952332
18194.5 0.949498
18212.1 0.949585
18221.0 0.955657
18225.4 0.981574
18227.6 1.07464
18228.7 1.36384
18229.2 2.07593
18229.5 3.35067
18229.6 4.84771
18229.8 7.71424
18229.9 11.8211
18230.0 14.5075
18230.1 11.8409
18230.2 7.73900
18230.4 4.72697
18230.5 3.29477
18230.8 2.06386
18231.4 1.35451
18232.5 1.07286
18234.8 0.981449
18239.3 0.954787
18248.4 0.946827
18266.5 0.943269
18302.7 0.939478
18375.1 0.932851
18520.0 0.920061
18809.8 0.895457
18954.7 0.883767
19099.6 0.872969
19172.0 0.868466
19244.5 0.866093
19280.7 0.867537
19316.9 0.875906
19335.0 0.889072
19353.1 0.926623
19362.2 0.977549
19366.7 1.02729
19371.2 1.11592
19375.8 1.29969
19378.0 1.47736
19380.3 1.78887
19382.6 2.42122
19383.7 3.01142
19384.8 4.01560
19385.9 5.93340
19386.5 7.64108
19387.1 10.3102
19387.6 14.9994
19388.2 23.8578
19388.5 31.9006
19388.8 43.9840
19389.1 63.3986
19389.3 94.9440
19389.7 152.304
19390.0 188.899
19390.3 149.797
19390.7 94.0717
19391.0 60.8616
19391.3 41.1839
19391.6 29.3155
19391.9 21.8191
19392.5 13.4236
19393.1 9.20533
19393.7 6.74518
19394.3 5.23925
19395.4 3.52989
19396.6 2.64614
19397.8 2.13235
19400.2 1.59095
19402.6 1.32749
19405.0 1.18028
19409.7 1.03080
19414.5 0.960629
19419.2 0.922335
19428.8 0.884247
19447.8 0.856978
19466.8 0.847067
19543.0 0.834220
19695.3 0.821619
20000.0 0.798979
20308.7 0.777253
20463.0 0.767253
20617.4 0.758557
20771.7 0.753081
20848.9 0.753364
20926.1 0.758708
20964.7 0.765264
21003.2 0.776901
21041.8 0.798025
21080.4 0.838995
21099.7 0.874495
21119.0 0.929284
21138.3 1.01944
21157.6 1.18183
21167.2 1.31628
21176.9 1.51741
21186.5 1.83703
21196.2 2.38778
21205.8 3.45868
21210.6 4.41533
21215.5 5.95870
21220.3 8.67753
21225.1 14.0447
21227.5 18.8668
21229.9 26.5498
21232.3 39.3966
21234.7 61.2940
21237.4 97.8454
21240.0 122.337
21242.6 98.1207
21245.3 61.6631
21248.0 37.4949
21250.8 24.2965
21253.5 16.8339
21256.3 12.3337
21259.0 9.45053
21261.8 7.50648
21267.3 5.14672
21272.8 3.82581
21278.3 3.01660
21289.2 2.12004
21300.2 1.66023
21311.2 1.39378
21322.2 1.22527
21333.2 1.11199
21355.2 0.973279
21377.2 0.894411
21399.2 0.844956
21421.2 0.811659
21465.2 0.770318
21509.1 0.745913
21553.1 0.729717
21597.1 0.718000
21685.0 0.701545
21773.0 0.689766
21948.9 0.672030
22124.8 0.657563
22300.7 0.644502
22652.5 0.620325
23356.1 0.575365
23707.9 0.553800
23883.8 0.543161
23971.8 0.537864
24015.8 0.535354
24037.8 0.534986
24048.8 0.538973
24054.3 0.558110
24057.0 0.631280
24058.4 0.871938
24059.1 1.52288
24059.4 2.76302
24059.6 4.34587
24059.7 7.97105
24059.9 12.3230
24060.0 15.4698
24060.1 12.3960
24060.3 8.03144
24060.4 4.85354
24060.5 3.26463
24060.8 1.83228
24061.4 1.02262
24062.6 0.687620
24064.9 0.577843
24069.5 0.545339
24078.7 0.535623
24097.1 0.531865
24133.8 0.528857
24207.4 0.524226
24354.6 0.515473
24648.9 0.498321
25237.6 0.464751
26415.0 0.399970
27592.3 0.337954
28181.0 0.307969
28475.3 0.293329
28622.5 0.286316
28696.1 0.283434
28732.9 0.283685
28751.3 0.289003
28760.5 0.308788
28765.1 0.376036
28767.4 0.590717
28768.5 1.18191
28769.1 2.39885
28769.4 4.15055
28769.6 8.25559
28769.8 12.9619
28770.0 16.0328
28770.2 12.8018
28770.4 8.05551
28770.5 5.28915
28770.7 3.64458
28771.0 2.02213
28771.6 0.960690
28772.9 0.489874
28775.5 0.332999
28780.6 0.289332
28790.8 0.278667
28811.2 0.275855
28852.1 0.273815
28933.8 0.270015
29097.2 0.262196
29424.0 0.246501
30077.6 0.215719
31384.9 0.157879
32692.2 0.108629
33345.8 0.0910757
33672.6 0.0866739
33836.0 0.0875481
33917.7 0.0911692
33958.6 0.0976579
33979.0 0.110548
33989.2 0.143297
33994.3 0.238301
33996.9 0.503527
33998.1 1.12140
33998.8 2.15317
33999.1 3.30522
33999.4 5.37896
33999.7 8.44468
34000.0 10.3092
34000.3 8.17198
34000.6 5.02685
34001.0 2.68546
34001.4 1.59737
34002.1 0.737077
34003.7 0.301536
34006.7 0.146020
34012.9 0.105857
34025.1 0.102945
34049.7 0.125627
34062.0 0.156203
34074.2 0.237886
34080.4 0.345122
34083.5 0.447582
34086.5 0.626133
34089.6 0.980513
34091.1 1.30731
34092.7 1.84780
34094.2 2.85213
34095.0 3.70642
34095.7 4.99531
34096.5 7.12195
34097.3 10.8181
34098.0 18.0608
34098.4 24.1259
34098.8 32.8258
34099.4 52.5517
34100.0 65.3362
34100.6 52.0131
34101.2 32.5857
34101.8 20.9117
34102.3 14.1277
34102.8 10.0210
34103.4 7.41935
34104.5 4.47803
34105.6 2.99483
34106.6 2.13903
34107.7 1.61211
34109.9 1.01970
34112.1 0.712034
34114.2 0.534024
34118.5 0.345894
34127.2 0.203216
34135.9 0.151381
34153.2 0.114115
34170.5 0.101482
34205.2 0.0935063
34239.8 0.0918415
34378.4 0.0971432
34517.0 0.110738
34655.5 0.136380
34794.1 0.189258
34863.4 0.239305
34932.7 0.326015
34967.3 0.395993
35002.0 0.499109
35036.6 0.661380
35071.3 0.940923
35088.6 1.16520
35105.9 1.49293
35123.2 2.00141
35140.6 2.85665
35157.9 4.47133
35166.5 5.88233
35175.2 8.11539
35183.9 11.9466
35192.5 19.2834
35196.9 25.6783
35201.2 35.5773
35205.5 51.5256
35209.8 77.5134
35214.9 122.814
35220.0 151.958
35225.1 120.154
35230.2 74.2740
35233.9 51.4768
35237.6 36.6308
35241.3 26.9355
35245.0 20.4441
35252.4 12.7115
35259.8 8.55252
35267.2 6.09292
35274.7 4.53453
35289.5 2.75675
35304.3 1.82767
35319.1 1.28684
35333.9 0.946473
35348.8 0.719621
35378.4 0.447529
35408.1 0.298592
35437.7 0.209470
35467.4 0.152649
35497.0 0.114639
35526.7 0.0882854
35585.9 0.0558103
35645.2 0.0380727
35704.5 0.0279949
35823.1 0.0191693
35941.7 0.0176162
36060.3 0.0196677
36178.9 0.0240079
36416.1 0.0380801
36653.2 0.0596601
36890.4 0.0911230
37127.6 0.136990
37364.8 0.205143
37602.0 0.309879
37839.1 0.479267
38076.3 0.774702
38194.9 1.01092
38313.5 1.35248
38432.1 1.87108
38550.7 2.71051
38669.2 4.19247
38728.5 5.39313
38787.8 7.14561
38847.1 9.82265
38906.4 14.1276
38965.7 21.4188
39025.0 34.0379
39087.5 54.4328
39150.0 67.9038
39212.5 54.2710
39275.0 33.9013
39321.8 23.4426
39368.6 16.6568
39415.4 12.2397
39462.2 9.28320
39555.8 5.77321
39649.4 3.88554
39742.9 2.76833
39836.5 2.05776
40023.7 1.24562
40210.9 0.822722
40398.1 0.580818
40585.2 0.435723
40772.4 0.348967
40959.6 0.301884
41146.8 0.286025
41333.9 0.299793
41521.1 0.348939
41708.3 0.453207
41895.5 0.677595
41989.0 0.907229
42035.8 1.09549
42082.6 1.38793
42129.4 1.90531
42152.8 2.34460
42176.2 3.03704
42199.6 4.24793
42211.3 5.23584
42223.0 6.70081
42234.7 9.00852
42246.4 12.9104
42258.1 20.0565
42269.8 33.8060
42279.9 52.7986
42290.0 64.8094
42300.1 51.2318
42310.2 31.9280
42317.9 22.0406
42325.7 15.7717
42333.4 11.7775
42341.1 9.15579
42356.6 6.13009
42372.0 4.57686
42387.5 3.71257
42402.9 3.21147
42433.9 2.76059
42464.8 2.68706
42495.7 2.82933
42557.5 3.63182
42619.3 5.38023
42650.2 6.91382
42681.2 9.28970
42712.1 13.2112
42743.0 20.2498
42758.4 25.9848
42773.9 34.2849
42789.4 46.5742
42804.8 64.7093
42827.4 102.400
42850.0 126.399
42872.6 99.5725
42895.2 61.2978
42919.9 35.6147
42944.6 22.1430
42969.3 14.7575
42993.9 10.4092
43018.6 7.67747
43043.3 5.86664
43092.7 3.71293
43142.0 2.54457
43191.4 1.85002
43240.7 1.40935
43290.1 1.11651
43388.8 0.774498
43487.6 0.604312
43586.3 0.523855
43685.0 0.498811
43882.5 0.573390
43981.2 0.684400
44079.9 0.885634
44178.6 1.28136
44228.0 1.63894
44277.4 2.22572
44326.7 3.28870
44351.4 4.17440
44376.1 5.50464
44400.8 7.61548
44425.4 11.1936
44450.1 17.7135
44474.8 30.1274
44497.4 48.5976
44520.0 61.4310
44542.6 49.7945
44565.2 31.6939
44587.0 20.2954
44608.8 13.7426
44630.6 9.88244
44652.4 7.48679
44696.0 4.84669
44739.6 3.52736
44783.2 2.78762
44826.7 2.33956
44913.9 1.86649
45001.1 1.65951
45088.3 1.57691
45262.6 1.59201
45611.3 1.96409
45960.1 2.65407
46308.8 3.74013
46657.5 5.50119
46831.8 6.86394
47006.2 8.97870
47093.4 10.7291
47180.6 13.8585
47224.1 16.7847
47267.7 22.1745
47289.5 26.8831
47311.3 34.3386
47333.1 46.8900
47354.9 68.6798
47377.5 103.415
47400.0 126.587
47422.6 103.712
47445.2 69.6486
47460.3 53.9304
47475.3 43.3457
47505.4 31.4468
47535.5 25.7545
47565.7 22.8585
47625.9 20.6395
47686.1 20.4273
47806.6 22.2390
47927.0 25.4765
48333.5 41.9963
48740.0 54.4879
49047.4 48.8598
49201.2 43.1214
49239.6 41.9375
49278.0 41.4889
49297.2 42.1140
49316.5 44.5129
49326.1 47.3600
49335.7 52.8030
49345.3 63.9840
49350.1 73.7822
49354.9 88.1889
49362.4 121.320
49370.0 145.133
49377.6 125.105
49385.1 92.5476
49390.4 76.4020
49395.6 65.3790
49406.1 52.5894
49416.6 45.9398
49427.1 42.0321
49448.1 37.6801
49469.1 35.2250
49511.0 32.2177
49553.0 30.1299
49664.8 25.9620
49776.5 22.6728
50000.0 17.5889
50354.1 12.2041
50708.1 8.80753
51062.2 6.56093
51416.2 5.00700
52124.3 3.05749
52832.4 1.92299
53540.6 1.20323
54248.7 0.722931
54956.8 0.401951
55310.8 0.298992
55399.4 0.288066
55487.9 0.304217
55532.1 0.347316
55554.3 0.395316
55576.4 0.485841
55598.5 0.679123
55609.6 0.866875
55620.6 1.19529
55631.7 1.84608
55637.2 2.43847
55642.8 3.41282
55648.3 5.17363
55651.1 6.63729
55653.8 8.81577
55656.6 12.2601
55659.4 18.0201
55662.1 28.4153
55664.9 47.7813
55667.4 76.3991
55670.0 95.5382
55672.6 76.4610
55675.1 47.9209
55677.1 33.1961
55679.0 23.7099
55680.9 17.5382
55682.8 13.4060
55686.7 8.48835
55690.5 5.84774
55694.4 4.27759
55698.2 3.27829
55705.9 2.12659
55713.6 1.51437
55721.3 1.15133
55736.6 0.760145
55752.0 0.563943
55767.4 0.451161
55798.1 0.331462
55828.9 0.270960
55859.6 0.234961
55921.1 0.193639
56044.1 0.153127
56167.1 0.130944
56413.0 0.108097
56536.0 0.104110
56597.5 0.104148
56628.3 0.106777
56643.6 0.117860
56651.3 0.158996
56655.2 0.286254
56657.1 0.585350
56658.0 1.06539
56659.0 2.46672
56660.0 4.90500
56661.0 2.54327
56661.6 1.44000
56662.3 0.913401
56663.5 0.481742
56666.1 0.245115
56671.1 0.150767
56681.2 0.119836
56701.4 0.110871
56741.8 0.109552
56822.5 0.113385
56984.0 0.128814
57307.0 0.186986
57629.9 0.286877
57952.9 0.439106
58275.9 0.662086
58598.9 0.999658
58760.3 1.25716
58921.8 1.69147
59002.6 2.11228
59043.0 2.46413
59083.3 3.02725
59123.7 4.05436
59143.9 4.93730
59164.1 6.32131
59184.3 8.67602
59204.4 13.1299
59214.5 16.9676
59224.6 22.8245
59234.7 32.0923
59244.8 46.8844
59257.4 74.3940
59270.0 93.0045
59282.6 74.9673
59295.2 47.6671
59309.0 28.9393
59322.8 19.0150
59336.7 13.5266
59350.5 10.2763
59364.3 8.22214
59378.1 6.85639
59405.7 5.22833
59433.4 4.34971
59461.0 3.83624
59516.2 3.32394
59626.7 3.07055
59737.3 3.15652
60179.3 4.40663
60621.4 6.52443
60842.4 7.97400
60952.9 8.88815
60980.5 9.19616
61008.2 9.65820
61022.0 10.0737
61028.9 10.4068
61035.8 10.9180
61042.7 11.7971
61049.6 13.5470
61053.1 15.1700
61056.5 17.8501
61060.0 22.5940
61063.4 31.3122
61066.7 44.5642
61070.0 53.6141
61073.3 45.1107
61076.6 32.0423
61079.5 24.3785
61082.4 19.7735
61085.3 16.9694
61088.2 15.1889
61094.1 13.1935
61099.9 12.1896
61105.7 11.6317
61111.5 11.3012
61123.2 10.9721
61146.4 10.8231
61169.7 10.8968
61262.8 11.6588
61449.0 13.6830
61886.8 19.8756
62324.5 27.8688
63200.0 42.3695
63637.8 43.4328
64075.5 40.0275
64951.0 29.1025
65723.2 21.3529
66495.4 16.1352
67267.6 12.6514
67653.6 11.3597
67750.2 11.0847
67846.7 10.8533
67895.0 10.7836
67919.1 10.7807
67943.2 10.8272
67967.3 10.9869
67979.4 11.1620
67991.5 11.4750
68003.5 12.0780
68009.6 12.5971
68015.6 13.3932
68021.6 14.6862
68027.7 16.9298
68033.7 21.1501
68039.7 29.5155
68044.9 41.2316
68050.0 49.1420
68055.1 41.4744
68060.3 29.8343
68063.7 24.4024
68067.1 20.6836
68073.9 16.3800
68080.7 14.1841
68087.5 12.9466
68094.3 12.1841
68101.0 11.6825
68114.6 11.0790
68128.2 10.7367
68141.8 10.5178
68169.0 10.2490
68196.1 10.0811
68223.3 9.95745
68277.6 9.76882
68386.3 9.47987
68495.0 9.23963
68603.7 9.03780
68658.0 8.95902
68712.4 8.90986
68766.7 8.92693
68793.9 8.99232
68821.1 9.14484
68848.2 9.49699
68861.8 9.84097
68875.4 10.4292
68889.0 11.5370
68895.8 12.4871
68902.6 13.9522
68909.4 16.3653
68916.2 20.6688
68923.0 29.1546
68926.4 36.5027
68929.7 47.2053
68934.9 70.1828
68940.0 85.1803
68945.1 69.3925
68950.3 46.2131
68954.0 34.7510
68957.7 27.2404
68961.3 22.2941
68965.0 18.9509
68972.4 14.9423
68979.8 12.7634
68987.2 11.4628
68994.6 10.6282
69009.3 9.65863
69024.1 9.13510
69038.8 8.81713
69068.4 8.45569
69097.9 8.25340
69127.4 8.11861
69186.5 7.93423
69245.5 7.79758
69304.5 7.68124
69422.6 7.47620
69658.8 7.11526
69895.0 6.79046
70367.4 6.22034
70485.5 6.09713
70603.6 5.99587
70662.6 5.97151
70692.1 5.97892
70721.7 6.01768
70751.2 6.13126
70765.9 6.25299
70780.7 6.47237
70795.5 6.90520
70802.8 7.28953
70810.2 7.89827
70817.6 8.93109
70825.0 10.8500
70828.7 12.4594
70832.4 14.8487
70836.1 18.4882
70839.7 24.0407
70844.9 35.3416
70850.0 43.1297
70855.1 35.9411
70860.3 24.7869
70864.5 18.5384
70868.7 14.6506
70873.0 12.1978
70877.2 10.5996
70885.7 8.74158
70894.1 7.75913
70902.6 7.17888
70911.1 6.80817
70928.0 6.37511
70944.9 6.13730
70961.9 5.98925
70995.7 5.81383
71029.6 5.70939
71063.5 5.63581
71131.2 5.52894
71266.6 5.37314
71402.1 5.24350
71943.9 4.80536
73027.5 4.11346
74111.2 3.61309
74382.1 3.53780
74653.0 3.53448
74788.5 3.61538
74856.2 3.71321
74923.9 3.89771
74991.6 4.27805
75025.5 4.63081
75059.4 5.21848
75093.2 6.30129
75110.2 7.21906
75127.1 8.62418
75144.0 10.9212
75160.9 15.0055
75177.9 23.0475
75186.3 30.0088
75194.8 40.1736
75207.4 61.5092
75220.0 74.9107
75232.6 59.4776
75245.2 37.6505
75258.9 23.1119
75272.5 15.4677
75286.2 11.2728
75299.9 8.80182
75313.6 7.24884
75327.2 6.21864
75354.6 4.99095
75381.9 4.32041
75409.2 3.91685
75463.9 3.47697
75518.6 3.25355
75573.3 3.12246
75682.6 2.97583
75792.0 2.89218
75901.3 2.83380
76120.0 2.74919
76338.7 2.68882
76557.4 2.66425
76666.8 2.69271
76721.4 2.73685
76776.1 2.82794
76830.8 3.02804
76858.1 3.21988
76885.5 3.54435
76912.8 4.14518
76926.5 4.65121
76940.1 5.41492
76953.8 6.63021
76967.5 8.69185
76981.1 12.4426
76994.8 19.5493
77007.4 30.1716
77020.0 37.5598
77032.6 30.8781
77045.2 20.4370
77055.0 14.8701
77064.7 11.2960
77074.5 8.98774
77084.3 7.44975
77103.8 5.62761
77123.3 4.64595
77142.8 4.06061
77162.4 3.68450
77201.4 3.24519
77240.5 3.00647
77279.5 2.86101
77357.6 2.69777
77435.7 2.61193
77513.8 2.56235
77670.0 2.52368
77826.2 2.55939
77904.3 2.62448
77982.4 2.75672
78060.5 3.03967
78099.6 3.30731
78138.6 3.75996
78177.7 4.61059
78197.2 5.34660
78216.7 6.49613
78236.2 8.43178
