Ti-50(n,g) ENDF/B-VII.1
Energy(eV) XS(b)
1.00000E-05 9.02823
1.25000E-05 8.07510
1.50000E-05 7.37152
2.00000E-05 6.38392
2.75000E-05 5.44423
3.50000E-05 4.82579
4.25000E-05 4.37934
5.00000E-05 4.03755
6.25000E-05 3.61129
7.50000E-05 3.29664
0.000100000 2.85498
0.000125000 2.55357
0.000150000 2.33108
0.000200000 2.01877
0.000275000 1.72162
0.000350000 1.52605
0.000425000 1.38487
0.000500000 1.27679
0.000625000 1.14199
0.000750000 1.04249
0.00100000 0.902823
0.00125000 0.807509
0.00150000 0.737152
0.00200000 0.638392
0.00275000 0.544423
0.00350000 0.482579
0.00425000 0.437933
0.00500000 0.403755
0.00625000 0.361129
0.00750000 0.329664
0.0100000 0.285498
0.0125000 0.255357
0.0150000 0.233108
0.0200000 0.201877
0.0253000 0.179491
0.0314750 0.160923
0.0376500 0.147136
0.0500000 0.127678
0.0625000 0.114198
0.0750000 0.104248
0.100000 0.0902815
0.125000 0.0807500
0.150000 0.0737142
0.200000 0.0638381
0.275000 0.0544409
0.350000 0.0482564
0.500000 0.0403737
0.750000 0.0329642
1.00000 0.0285472
1.50000 0.0233076
2.00000 0.0201841
2.75000 0.0172119
3.50000 0.0152557
5.00000 0.0127621
7.50000 0.0104179
10.0000 0.00902011
15.0000 0.00736158
20.0000 0.00637245
27.5000 0.00543078
35.0000 0.00481063
50.0000 0.00401944
75.0000 0.00327451
100.000 0.00282947
150.000 0.00229995
200.000 0.00198295
275.000 0.00167984
350.000 0.00147917
500.000 0.00122135
750.000 0.000975780
1000.00 0.000827119
1500.00 0.000647541
2000.00 0.000538302
2750.00 0.000432602
3500.00 0.000362189
5000.00 0.000272104
7500.00 0.000189007
10000.0 0.000142101
13494.9 0.000103670
15242.4 9.14755E-05
16116.1 8.83708E-05
16553.0 9.46870E-05
16771.4 0.000128526
16880.6 0.000267937
16935.2 0.000825973
16962.5 0.00304202
16976.2 0.0117659
16983.0 0.0456131
16984.7 0.0796954
16986.4 0.172399
16987.3 0.296972
16988.1 0.620910
16988.5 1.03370
16989.0 2.00572
16989.2 3.16596
16989.4 5.50152
16989.5 7.85875
16989.6 11.4865
16989.7 18.8086
16989.8 32.0218
16989.9 51.9996
16990.0 64.0448
16990.1 51.9995
16990.2 32.0218
16990.3 19.7544
16990.4 13.0305
16990.5 9.08283
16990.6 6.63633
16990.7 3.84433
16990.9 2.54107
16991.3 1.31820
16991.7 0.812273
16992.4 0.389782
16993.1 0.229337
16994.6 0.106216
16996.1 0.0610155
17001.9 0.0157909
17013.7 0.00407019
17037.2 0.00108673
17084.2 0.000333200
17178.3 0.000143403
17366.4 9.49706E-05
17742.6 8.12818E-05
18495.1 7.50269E-05
20000.0 6.86812E-05
23750.0 5.87610E-05
27500.0 5.36047E-05
35000.0 5.53467E-05
38750.0 6.45538E-05
42500.0 8.56687E-05
44375.0 0.000105273
46250.0 0.000137066
48125.0 0.000192781
50000.0 0.000303071
51094.9 0.000425991
52189.9 0.000652090
52737.4 0.000844162
53284.8 0.00113981
53832.3 0.00163055
54106.0 0.00201623
54242.9 0.00230616
54311.3 0.00265406
54345.6 0.00357399
54362.7 0.00695141
54371.2 0.0198983
54375.5 0.0684789
54377.6 0.239735
54378.7 0.773517
54379.2 2.07863
54379.5 4.41103
54379.6 7.00625
54379.8 12.1854
54379.9 19.3290
54380.0 24.3684
54380.1 19.3289
54380.2 12.1854
54380.4 5.41031
54380.7 2.81919
54381.1 1.14399
54381.9 0.377380
54383.5 0.110644
54386.8 0.0315132
54393.4 0.0100499
54406.5 0.00448726
54432.9 0.00312087
54485.5 0.00289142
54590.7 0.00309470
54696.0 0.00342088
54748.6 0.00361060
54801.2 0.00381825
54853.8 0.00404534
54906.4 0.00429376
54959.0 0.00456591
55011.7 0.00486457
55116.9 0.00555559
55222.1 0.00640066
55327.4 0.00744650
55432.6 0.00875726
55537.8 0.0104230
55643.1 0.0125696
55748.3 0.0153744
55853.5 0.0190795
55958.8 0.0239987
56064.0 0.0304664
56173.0 0.0389600
56282.0 0.0486350
56500.0 0.0605106
56609.0 0.0567873
56718.0 0.0481502
56936.0 0.0300004
57088.6 0.0212337
57241.1 0.0153939
57393.6 0.0115022
57546.2 0.00884638
57851.3 0.00562971
58156.3 0.00386479
58461.4 0.00280590
58766.5 0.00212530
59376.7 0.00133704
59986.9 0.000917508
60597.0 0.000668990
61207.2 0.000510178
61817.4 0.000402826
63037.7 0.000271777
64258.0 0.000198631
65478.4 0.000154593
66698.7 0.000127110
69139.4 0.000101196
71580.1 0.000105750
72800.4 0.000125505
74020.7 0.000173739
74630.9 0.000223384
75241.1 0.000320344
75546.2 0.000416558
75851.2 0.000620063
76003.8 0.000848815
76080.1 0.00105241
76156.3 0.00139100
76232.6 0.00203224
76270.7 0.00260019
76308.9 0.00351553
76347.0 0.00513312
76385.1 0.00838004
76404.2 0.0113563
76423.3 0.0162059
76442.3 0.0245764
76461.4 0.0394227
76480.7 0.0628276
76500.0 0.0784275
76519.3 0.0627881
76538.6 0.0394201
76555.2 0.0260845
76571.8 0.0179990
76588.4 0.0130318
76605.0 0.00985187
76638.2 0.00624659
76671.4 0.00439575
76704.6 0.00333732
76737.8 0.00268358
76804.2 0.00196692
76870.6 0.00162098
76937.0 0.00144565
77069.8 0.00133392
77335.4 0.00153736
77601.0 0.00216357
77733.8 0.00271361
77866.6 0.00354329
77999.4 0.00485849
78132.2 0.00710542
78265.0 0.0113941
78331.4 0.0151584
78397.8 0.0211193
78464.2 0.0313215
78530.6 0.0507265
78563.8 0.0675098
78597.0 0.0933186
78630.2 0.134710
78663.4 0.202661
78706.7 0.345496
78750.0 0.450893
78793.3 0.344625
78836.6 0.202327
78881.0 0.118446
78925.5 0.0748381
78969.9 0.0507732
79014.3 0.0364504
79058.7 0.0273400
79103.2 0.0212268
79192.0 0.0138251
79280.9 0.00970523
79369.7 0.00718616
79547.4 0.00439881
79725.1 0.00297433
79902.8 0.00215031
80080.5 0.00163122
80258.2 0.00128326
80613.6 0.000860370
80969.0 0.000623547
81324.4 0.000480775
81502.1 0.000441047
81591.0 0.000469352
81635.4 0.000661278
81657.6 0.00145811
81668.7 0.00460676
81674.3 0.0167370
81677.1 0.0619172
81678.4 0.218350
81679.1 0.681380
81679.5 1.77552
81679.7 3.47045
81679.8 8.29538
81680.0 16.5904
81680.2 8.29537
81680.4 3.31837
81680.5 1.71604
81680.9 0.681384
81681.6 0.218352
81682.9 0.0627575
81685.7 0.0170243
81691.2 0.00467820
81702.2 0.00146900
81724.2 0.000647142
81768.2 0.000431907
81856.2 0.000363400
82032.2 0.000321387
82384.1 0.000274391
83088.0 0.000232966
83440.0 0.000243465
83792.0 0.000313545
83968.0 0.000419597
84056.0 0.000522652
84143.9 0.000700732
84231.9 0.00104381
84275.9 0.00134674
84319.9 0.00182823
84363.9 0.00265574
84407.9 0.00423456
84429.9 0.00560140
84451.9 0.00769858
84473.9 0.0110345
84495.9 0.0163850
84523.0 0.0261784
84550.0 0.0327053
84577.1 0.0261465
84604.1 0.0163616
84625.7 0.0110871
84647.4 0.00777519
84669.0 0.00567705
84690.6 0.00430229
84733.9 0.00270373
84777.2 0.00186043
84820.5 0.00136693
84863.7 0.00105488
84950.3 0.000698607
85036.8 0.000510988
85123.3 0.000400291
85296.4 0.000281629
85469.5 0.000222955
85642.5 0.000190357
85988.7 0.000161341
86334.8 0.000162180
86681.0 0.000210095
86854.0 0.000289297
87027.1 0.000521225
87113.6 0.000843242
87156.9 0.00116238
87200.2 0.00173886
87243.4 0.00294632
87265.1 0.00411965
87286.7 0.00619485
87297.5 0.00789107
87308.4 0.0104036
87319.2 0.0143515
87330.0 0.0210611
87340.8 0.0338584
87346.2 0.0450898
87351.6 0.0628338
87357.0 0.0932291
87362.4 0.150893
87365.1 0.200629
87367.8 0.276226
87370.5 0.395486
87373.2 0.584999
87376.6 0.936053
87380.0 1.17006
87383.4 0.935922
87386.8 0.584910
87389.0 0.423142
87391.2 0.312390
87395.6 0.184190
87400.1 0.119148
87404.5 0.0827051
87409.0 0.0605237
87413.4 0.0461147
87422.3 0.0292433
87431.2 0.0201595
87440.0 0.0147304
87457.8 0.00885269
87475.6 0.00591204
87493.3 0.00423515
87528.8 0.00249504
87564.4 0.00165704
87599.9 0.00119050
87670.9 0.000716343
87813.0 0.000368815
87955.0 0.000244460
88239.2 0.000154291
88523.3 0.000122989
89091.6 0.000104908
89659.8 0.000110257
90228.1 0.000139616
90512.2 0.000172503
90796.4 0.000233513
91080.5 0.000361466
91222.6 0.000484340
91364.6 0.000697935
91506.7 0.00111793
91577.7 0.00149861
91648.8 0.00212230
91719.8 0.00324425
91755.3 0.00417092
91790.8 0.00554942
91826.4 0.00771057
91861.9 0.0113126
91897.4 0.0177311
91932.9 0.0295883
91966.5 0.0473479
92000.0 0.0591652
92033.6 0.0472847
92067.1 0.0295453
92088.6 0.0215462
92110.1 0.0160202
92153.1 0.00955109
92196.1 0.00623012
92239.1 0.00435487
92282.1 0.00320740
92325.1 0.00245916
92411.1 0.00157982
92497.1 0.00110460
92583.1 0.000819942
92755.1 0.000511169
92927.1 0.000356572
93099.1 0.000268569
93443.0 0.000178061
93787.0 0.000136017
94131.0 0.000114732
94819.0 0.000102061
95506.9 0.000119137
95850.9 0.000145137
96194.9 0.000197052
96366.9 0.000242191
96538.9 0.000311940
96710.9 0.000426935
96882.9 0.000635269
96968.9 0.000809073
97054.8 0.00107146
97140.8 0.00149440
97226.8 0.00224048
97269.8 0.00284816
97312.8 0.00374528
97355.8 0.00514840
97398.8 0.00751940
97441.8 0.0119929
97463.3 0.0158762
97484.8 0.0219556
97506.3 0.0321854
97527.8 0.0511097
97538.6 0.0669783
97549.3 0.0905807
97560.1 0.126659
97570.8 0.181867
97585.4 0.291113
97600.0 0.363829
97614.6 0.290875
97629.2 0.181759
97638.5 0.132857
97647.7 0.0989783
97666.2 0.0591232
97684.8 0.0385622
97703.3 0.0269150
97721.8 0.0197699
97740.3 0.0151067
97777.4 0.00961797
97814.4 0.00664722
97851.5 0.00486633
97925.6 0.00293210
97999.6 0.00196157
98073.7 0.00140704
98147.8 0.00106085
98221.9 0.000830375
98370.1 0.000552113
98518.3 0.000396886
98666.4 0.000301475
98814.6 0.000238627
99111.0 0.000163465
99407.3 0.000121825
100000 7.94965E-05
100700 5.76135E-05
101050 5.51132E-05
101225 6.96561E-05
101312 0.000137301
101356 0.000409251
101378 0.00148265
101389 0.00559185
101394 0.0210513
101397 0.0729868
101398 0.236385
101399 0.638846
101399 1.18193
101400 3.24059
101400 6.45189
101400 3.24058
101401 0.770791
101402 0.300484
101403 0.0958575
101405 0.0282806
101410 0.00757091
101419 0.00198699
101438 0.000539956
101475 0.000168662
101550 7.38520E-05
101700 4.86170E-05
101999 3.98530E-05
102598 3.39955E-05
103796 2.80096E-05
106192 2.22245E-05
110983 1.83882E-05
115774 2.31828E-05
116972 3.01567E-05
118169 5.06402E-05
118768 7.92336E-05
119068 0.000107713
119367 0.000159426
119517 0.000202814
119667 0.000268672
119816 0.000375732
119966 0.000567086
120041 0.000725139
120116 0.000961238
120191 0.00133771
120266 0.00198986
120340 0.00327273
120378 0.00443413
120415 0.00633704
120453 0.00977328
120471 0.0126080
120490 0.0168294
120509 0.0234530
120528 0.0345133
120546 0.0542591
120565 0.0908452
120583 0.145456
120600 0.181520
120618 0.145048
120635 0.0907926
120650 0.0606116
120664 0.0419139
120679 0.0302182
120693 0.0226672
120722 0.0139263
120751 0.00935354
120780 0.00668588
120809 0.00501356
120867 0.00311314
120924 0.00211718
120982 0.00153395
121040 0.00116306
121098 0.000912795
121214 0.000606455
121329 0.000433469
121445 0.000326353
121561 0.000255520
121792 0.000170476
122023 0.000123377
122255 9.45834E-05
122486 7.57052E-05
122949 5.32713E-05
123411 4.09668E-05
124336 2.86545E-05
125262 2.29917E-05
126187 2.00339E-05
128038 1.76988E-05
129888 1.82709E-05
131739 2.35672E-05
132664 3.18225E-05
133127 4.01910E-05
133589 5.54697E-05
134052 8.77817E-05
134283 0.000119408
134515 0.000175792
134630 0.000222215
134746 0.000291462
134862 0.000401295
134977 0.000590504
135093 0.000958981
135151 0.00128930
135209 0.00182464
135267 0.00277448
135296 0.00354555
135324 0.00467510
135353 0.00640856
135382 0.00921582
135411 0.0140185
135440 0.0224512
135470 0.0360647
135500 0.0451868
135530 0.0360360
135560 0.0224316
135584 0.0151035
135608 0.0105205
135632 0.00762823
135656 0.00574332
135705 0.00354697
135753 0.00239332
135801 0.00171791
135849 0.00129242
135945 0.000807437
136041 0.000552657
136138 0.000402923
136234 0.000307614
136330 0.000243315
136523 0.000164503
136715 0.000119963
136908 9.23407E-05
137100 7.40553E-05
137486 5.20937E-05
137871 3.99105E-05
138641 2.75638E-05
139411 2.17461E-05
140181 1.85561E-05
141721 1.53848E-05
147883 1.28694E-05
154044 1.38707E-05
160205 1.69412E-05
166366 2.40041E-05
169447 3.09989E-05
172528 4.34602E-05
175608 6.89355E-05
177149 9.30770E-05
178689 0.000134701
180229 0.000215866
180999 0.000288972
181769 0.000408077
182540 0.000620827
182925 0.000795401
183310 0.00105353
183502 0.00123094
183695 0.00145497
183791 0.00158953
183887 0.00174251
183984 0.00191714
184080 0.00211707
184176 0.00234733
184273 0.00261324
184369 0.00292131
184465 0.00327870
184658 0.00417777
184850 0.00538161
185038 0.00688041
185225 0.00858905
185600 0.0107028
185788 0.0100603
185975 0.00854478
186350 0.00533972
186587 0.00391106
186824 0.00291870
187298 0.00174972
187772 0.00114598
188246 0.000804366
188720 0.000595501
189194 0.000460057
190142 0.000304472
191089 0.000229840
192037 0.000212891
192511 0.000242133
192748 0.000280787
192985 0.000356320
193222 0.000518575
193341 0.000674912
193459 0.000944924
193578 0.00146868
193637 0.00193565
193696 0.00268441
193755 0.00399345
193815 0.00655016
193844 0.00882150
193874 0.0124001
193903 0.0182968
193933 0.0281766
193967 0.0451877
194000 0.0565802
194034 0.0451589
194067 0.0281547
194097 0.0181057
194128 0.0121948
194158 0.00862736
194188 0.00638530
194249 0.00387163
194309 0.00259279
194370 0.00186150
194430 0.00140634
194551 0.000894291
194672 0.000628321
194793 0.000472604
195035 0.000306345
195277 0.000223322
195519 0.000175418
196003 0.000123978
196487 9.73585E-05
196971 8.11410E-05
197939 6.21281E-05
199874 4.36703E-05
201810 3.42869E-05
205682 2.48807E-05
209553 2.07154E-05
213425 1.92758E-05
217296 2.06747E-05
221168 3.20272E-05
222135 4.25144E-05
223103 6.89474E-05
223587 0.000102056
223829 0.000133074
224071 0.000186733
224313 0.000293913
224434 0.000394114
224555 0.000565255
224676 0.000896567
224737 0.00119327
224797 0.00167441
224858 0.00252833
224888 0.00322611
224918 0.00424867
224948 0.00583149
224979 0.00840472
225009 0.0128462
225039 0.0207260
225070 0.0331458
225100 0.0413834
225131 0.0330907
225161 0.0207227
225188 0.0135726
225214 0.00925979
225241 0.00662158
225268 0.00493780
225321 0.00303348
225374 0.00205681
225427 0.00149743
225480 0.00115063
225587 0.000767281
225693 0.000578507
225799 0.000480873
226012 0.000423351
226225 0.000494670
226331 0.000592027
226438 0.000761471
226544 0.00106392
226650 0.00164488
226704 0.00214461
226757 0.00290246
226810 0.00408718
226863 0.00594286
226932 0.00946292
227000 0.0118026
227069 0.00944693
227137 0.00592366
227186 0.00418221
227235 0.00303019
227284 0.00226742
227333 0.00175036
227431 0.00112553
227529 0.000784061
227627 0.000579031
227725 0.000447174
227921 0.000293768
228116 0.000211397
228312 0.000162156
228704 0.000108810
229096 8.23146E-05
229488 6.77428E-05
230271 5.53876E-05
231055 5.68240E-05
231446 6.37661E-05
231838 7.88489E-05
232230 0.000112449
232426 0.000145296
232622 0.000202668
232817 0.000315666
232915 0.000418036
233013 0.000585198
233111 0.000884963
233160 0.00113152
233209 0.00149595
233258 0.00206467
233307 0.00300235
233356 0.00465469
233405 0.00764955
233453 0.0122182
233500 0.0152564
233548 0.0122093
233595 0.00764305
233639 0.00487273
233683 0.00325544
233727 0.00229206
233771 0.00168907
233860 0.00101944
233948 0.000681227
234036 0.000488768
234124 0.000369418
234301 0.000235753
234477 0.000166643
234653 0.000126426
235006 8.38721E-05
235359 6.30363E-05
235711 5.13522E-05
236417 3.95474E-05
237828 3.18230E-05
239239 3.11952E-05
240649 3.50541E-05
242060 4.76932E-05
242766 6.41168E-05
243119 7.95571E-05
243471 0.000106216
243824 0.000158968
244000 0.000207646
244177 0.000289408
244353 0.000443167
244441 0.000576513
244529 0.000785065
244618 0.00113688
244706 0.00178998
244750 0.00233981
244794 0.00316092
244838 0.00442249
244882 0.00636090
244941 0.0101496
245000 0.0126694
245059 0.0101426
245118 0.00635780
245162 0.00443363
245205 0.00318023
245249 0.00236184
245293 0.00181256
245380 0.00115902
245468 0.000807306
245555 0.000598981
245642 0.000466820
245817 0.000317050
245992 0.000240925
246167 0.000199806
246516 0.000170067
246866 0.000187984
247040 0.000220248
247215 0.000282781
247390 0.000410803
247477 0.000527833
247565 0.000719144
247652 0.00106171
247739 0.00175799
247783 0.00240255
247827 0.00346265
247870 0.00531481
247914 0.00864064
247957 0.0137692
248000 0.0171797
248043 0.0137622
248086 0.00863746
248123 0.00570923
248160 0.00392858
248197 0.00283221
248234 0.00213063
248307 0.00133176
248381 0.000920221
248455 0.000684075
248528 0.000537724
248676 0.000376725
248823 0.000299358
248971 0.000262145
249265 0.000253504
249560 0.000322590
249708 0.000406217
249855 0.000560811
250003 0.000877378
250076 0.00117205
250150 0.00166694
250224 0.00258927
250261 0.00338050
250297 0.00459843
250334 0.00661238
250371 0.0102160
250408 0.0173984
250426 0.0236378
250445 0.0328081
250472 0.0524710
250500 0.0655792
250528 0.0524516
250555 0.0327953
250587 0.0189483
250618 0.0118089
250650 0.00792998
250681 0.00565532
250712 0.00422333
250744 0.00327585
250807 0.00214234
250870 0.00151935
250932 0.00114385
251058 0.000736147
251184 0.000535794
251309 0.000428555
251561 0.000346982
251812 0.000381755
252063 0.000609736
252189 0.000941876
252252 0.00126219
252315 0.00181659
252377 0.00289633
252409 0.00386014
252440 0.00541416
252472 0.00814221
252503 0.0135307
252519 0.0183689
252534 0.0260749
252550 0.0389564
252566 0.0609056
252583 0.0974157
252600 0.121750
252617 0.0973913
252634 0.0608863
252655 0.0343443
252675 0.0210101
252695 0.0139249
252716 0.00983205
252736 0.00728831
252757 0.00561096
252797 0.00361765
252838 0.00252881
252879 0.00187163
252961 0.00115326
253042 0.000790196
253124 0.000581510
253287 0.000362811
253450 0.000256168
253613 0.000196103
253940 0.000134347
254266 0.000105237
254593 9.00477E-05
255245 7.96414E-05
256551 0.000133501
256877 0.000200135
257204 0.000384497
257367 0.000627262
257448 0.000857523
257530 0.00125387
257612 0.00202264
257652 0.00270992
257693 0.00381970
257734 0.00577332
257775 0.00965092
257795 0.0131512
257816 0.0187574
257836 0.0281994
257856 0.0443317
257878 0.0709967
257900 0.0886626
257922 0.0708458
257944 0.0443165
257960 0.0310636
257975 0.0223431
257991 0.0165974
258007 0.0127122
258039 0.00805121
258070 0.00551672
258102 0.00400459
258133 0.00303600
258196 0.00191838
258260 0.00132312
258323 0.000970324
258449 0.000591446
258576 0.000402950
258702 0.000295943
258955 0.000185116
259207 0.000131830
259460 0.000102151
259965 7.19388E-05
260471 5.76383E-05
260976 4.97920E-05
261987 4.20641E-05
264008 3.73219E-05
266029 3.69797E-05
274115 4.79771E-05
282201 7.60374E-05
286243 0.000105501
288265 0.000143755
289276 0.000239199
289781 0.000576921
289907 0.000912346
290034 0.00182832
290097 0.00304299
290160 0.00622564
290192 0.0102276
290207 0.0138816
290223 0.0199179
290239 0.0309135
290247 0.0401151
290255 0.0539889
290263 0.0761286
290271 0.113991
290278 0.183931
290286 0.317101
290293 0.507084
290300 0.633619
290307 0.507028
290314 0.317073
290320 0.199195
290327 0.132264
290334 0.0921508
290340 0.0676044
290353 0.0402732
290366 0.0266355
290379 0.0188331
290392 0.0140411
290418 0.00865743
290471 0.00426464
290523 0.00256518
290627 0.00126708
290732 0.000789813
290941 0.000438576
291150 0.000314165
291568 0.000227290
291985 0.000200267
292821 0.000189009
293657 0.000194310
294493 0.000205458
295329 0.000219865
297000 0.000255624
298250 0.000287471
299500 0.000322982
302000 0.000399576
307000 0.000487824
309500 0.000453881
312000 0.000382569
317000 0.000237526
320489 0.000168864
323979 0.000124207
327468 9.96946E-05
328341 9.96539E-05
329213 0.000110545
329649 0.000130149
330085 0.000188411
