Cr-54(n,g) ENDF/B-VII.1
Energy(eV) XS(b)
1.00000E-05 20.6765
1.25000E-05 18.4937
1.50000E-05 16.8823
2.00000E-05 14.6205
2.75000E-05 12.4684
3.50000E-05 11.0521
4.25000E-05 10.0296
5.00000E-05 9.24683
6.25000E-05 8.27062
7.50000E-05 7.55001
0.000100000 6.53850
0.000125000 5.84821
0.000150000 5.33866
0.000200000 4.62342
0.000275000 3.94286
0.000350000 3.49497
0.000425000 3.17164
0.000500000 2.92411
0.000625000 2.61540
0.000750000 2.38752
0.00100000 2.06765
0.00125000 1.84937
0.00150000 1.68823
0.00200000 1.46205
0.00275000 1.24684
0.00350000 1.10521
0.00425000 1.00296
0.00500000 0.924683
0.00625000 0.827061
0.00750000 0.755000
0.0100000 0.653849
0.0125000 0.584820
0.0150000 0.533865
0.0200000 0.462340
0.0253000 0.411070
0.0314750 0.368547
0.0376500 0.336971
0.0500000 0.292408
0.0625000 0.261538
0.0750000 0.238749
0.100000 0.206762
0.125000 0.184933
0.150000 0.168819
0.200000 0.146201
0.275000 0.124679
0.350000 0.110515
0.500000 0.0924613
0.750000 0.0754915
1.00000 0.0653751
1.50000 0.0533745
2.00000 0.0462201
2.75000 0.0394122
3.50000 0.0349312
5.00000 0.0292189
7.50000 0.0238481
10.0000 0.0206452
15.0000 0.0168440
20.0000 0.0145763
27.5000 0.0124166
35.0000 0.0109937
50.0000 0.00917720
75.0000 0.00746500
100.000 0.00644067
150.000 0.00521962
200.000 0.00448686
275.000 0.00378428
350.000 0.00331778
500.000 0.00271633
750.000 0.00214087
999.999 0.00179142
1000.00 0.00179141
1000.01 0.00179141
1000.02 0.00179140
1000.03 0.00179138
1000.06 0.00179134
1000.12 0.00179127
1000.25 0.00179114
1000.49 0.00179086
1000.98 0.00179030
1001.96 0.00178919
1003.91 0.00178698
1007.81 0.00178257
1015.63 0.00177382
1031.25 0.00175662
1062.50 0.00172331
1125.00 0.00166078
1250.00 0.00154962
1500.00 0.00136935
2000.00 0.00111416
2750.00 0.000870700
3500.00 0.000712258
5000.00 0.000517613
7500.00 0.000353379
8750.00 0.000309046
9375.00 0.000297684
9687.50 0.000303427
10000.0 0.000382427
10134.4 0.000707430
10201.6 0.00200803
10235.2 0.00712709
10243.6 0.0123408
10252.0 0.0268868
10256.2 0.0466338
10260.4 0.100407
10262.5 0.171162
10263.6 0.238466
10264.6 0.354793
10265.7 0.581997
10266.2 0.789110
10266.7 1.11990
10267.2 1.72138
10267.5 2.20494
10267.8 2.91527
10268.0 4.00943
10268.3 5.79032
10268.5 8.85799
10268.8 14.2889
10269.1 23.0864
10269.3 28.6847
10269.6 22.7416
10269.9 14.2916
10270.1 8.85980
10270.4 5.88052
10270.6 4.06347
10270.9 2.98380
10271.1 2.25064
10271.4 1.76923
10271.9 1.16245
10272.4 0.819536
10272.9 0.607890
10273.9 0.371867
10275.0 0.250497
10276.0 0.180074
10278.0 0.106090
10282.1 0.0493425
10286.2 0.0285029
10294.3 0.0130961
10302.5 0.00756493
10335.0 0.00212463
10400.2 0.000735530
10530.6 0.000382198
10791.3 0.000289560
11312.8 0.000260793
12355.8 0.000252785
12877.2 0.000262778
13398.7 0.000302878
13659.4 0.000362861
13789.8 0.000423887
13920.2 0.000536489
14050.5 0.000779353
14115.7 0.00102262
14180.9 0.00146787
14213.5 0.00184433
14246.1 0.00242061
14278.7 0.00336809
14311.3 0.00508992
14327.6 0.00653549
14343.9 0.00873244
14360.2 0.0123130
14376.5 0.0187279
14384.6 0.0240414
14392.8 0.0320146
14400.9 0.0447657
14409.1 0.0669873
14417.2 0.111104
14421.3 0.151576
14425.4 0.218503
14429.4 0.341380
14431.5 0.444855
14433.5 0.600901
14435.5 0.853007
14437.6 1.28658
14439.6 2.10479
14441.6 3.71946
14443.4 5.95882
14445.1 7.44052
14446.8 5.94532
14448.5 3.72008
14450.0 2.44683
14451.4 1.67655
14452.9 1.20065
14454.4 0.894502
14457.3 0.545305
14460.2 0.364445
14463.1 0.259887
14466.0 0.194353
14471.9 0.120206
14477.7 0.0815080
14483.6 0.0589061
14489.4 0.0445594
14495.2 0.0348921
14506.9 0.0230755
14518.6 0.0164167
14530.3 0.0122936
14542.0 0.00956940
14565.4 0.00630336
14588.7 0.00449660
14612.1 0.00339470
14635.5 0.00267543
14682.2 0.00183295
14728.9 0.00141209
14775.7 0.00140056
14799.0 0.00238554
14810.7 0.00658511
14816.6 0.0227118
14819.5 0.0811332
14820.9 0.272687
14821.7 0.794769
14822.0 1.87030
14822.2 3.28647
14822.4 6.50986
14822.5 10.5910
14822.7 13.0324
14822.8 10.2455
14822.9 6.50111
14823.0 3.78467
14823.2 2.43940
14823.4 1.18297
14824.0 0.444012
14825.1 0.140241
14827.2 0.0400957
14831.5 0.0112462
14840.0 0.00347751
14857.2 0.00142810
14891.5 0.000842011
14960.0 0.000603706
15097.1 0.000446732
15371.3 0.000335412
15919.6 0.000276406
17016.3 0.000271076
18113.0 0.000312747
18661.4 0.000358899
18935.5 0.000417385
19072.6 0.000563357
19141.2 0.00109301
19175.4 0.00316252
19192.6 0.0112614
19201.1 0.0423518
19203.3 0.0732100
19205.4 0.156560
19206.5 0.265105
19207.6 0.542451
19208.1 0.883452
19208.6 1.65375
19208.9 2.49157
19209.2 4.13057
19209.3 5.65358
19209.4 7.87795
19209.6 11.4654
19209.7 17.4359
19209.9 28.1944
19210.0 34.8799
19210.2 28.1790
19210.3 17.4238
19210.4 12.9691
19210.5 9.58382
19210.7 5.78841
19210.9 3.72623
19211.1 2.62053
19211.5 1.46542
19211.9 0.939968
19212.6 0.475298
19213.4 0.285640
19214.9 0.135866
19216.5 0.0791877
19219.6 0.0365383
19222.6 0.0210866
19235.0 0.00570764
19259.7 0.00175391
19309.0 0.000756846
19407.7 0.000518274
19605.2 0.000487244
19802.6 0.000514009
20000.0 0.000555980
20086.7 0.000578087
20173.3 0.000602484
20260.0 0.000629326
20346.6 0.000658831
20433.3 0.000691285
20519.9 0.000727023
20606.6 0.000766461
20693.3 0.000810075
20779.9 0.000858452
20866.6 0.000912270
21039.9 0.00103965
21213.2 0.00120093
21386.5 0.00140893
21559.8 0.00168308
21733.1 0.00205379
21906.4 0.00257057
22079.8 0.00331763
22253.1 0.00444494
22426.4 0.00623138
22599.7 0.00920637
22773.0 0.0142864
23149.0 0.0295323
23242.8 0.0283303
23336.5 0.0244121
23524.0 0.0153812
23730.9 0.00899551
23937.7 0.00562966
24144.5 0.00378899
24351.4 0.00270752
24558.2 0.00202829
24765.1 0.00157743
25178.8 0.00103864
25592.4 0.000743069
26006.1 0.000564323
26833.5 0.000368705
27660.9 0.000269718
28488.3 0.000212714
30143.0 0.000152683
31797.8 0.000123098
33452.5 0.000106223
36762.0 8.86548E-05
43381.0 7.70391E-05
50000.0 8.47525E-05
50572.4 9.01017E-05
50858.6 0.000100572
51001.7 0.000134976
51073.2 0.000267855
51109.0 0.000793782
51126.9 0.00287205
51135.8 0.0109793
51140.3 0.0418343
51142.5 0.154196
51143.7 0.526353
51144.2 1.55793
51144.5 3.67912
51144.6 6.59995
51144.8 12.9486
51144.9 21.0000
51145.0 25.8521
51145.0 21.0149
51145.1 12.9603
51145.3 7.25987
51145.4 4.29419
51145.6 1.98473
51146.1 0.716725
51147.0 0.218590
51148.8 0.0605811
51152.5 0.0159708
51159.9 0.00416029
51174.6 0.00112281
51204.2 0.000352065
51263.2 0.000158551
51381.2 0.000111244
51617.3 0.000102343
52089.4 0.000108508
52561.5 0.000123088
53033.6 0.000150418
53505.7 0.000208714
53741.8 0.000266303
53977.9 0.000370135
54213.9 0.000587048
54332.0 0.000797286
54450.0 0.00116837
54568.0 0.00191760
54627.0 0.00261724
54686.0 0.00380148
54745.1 0.00604126
54774.6 0.00799059
54804.1 0.0110491
54833.6 0.0162165
54863.1 0.0258302
54877.9 0.0339415
54892.6 0.0460650
54907.4 0.0647232
54922.1 0.0935279
54941.8 0.149545
54961.4 0.186860
54981.1 0.149559
55000.7 0.0935605
55012.8 0.0690074
55025.0 0.0518039
55049.2 0.0312947
55073.5 0.0205685
55097.8 0.0144379
55122.0 0.0106556
55146.3 0.00817480
55194.8 0.00524240
55243.3 0.00364913
55291.8 0.00269114
55388.9 0.00164824
55485.9 0.00112377
55583.0 0.000823698
55777.0 0.000511350
55971.1 0.000360605
56165.2 0.000276588
56553.4 0.000191199
56941.5 0.000150966
57329.7 0.000128960
58106.0 0.000107185
59658.7 9.25877E-05
61211.3 8.89927E-05
64316.6 9.29052E-05
65869.3 0.000109632
66645.6 0.000170375
67033.8 0.000406535
67227.9 0.00132461
67276.4 0.00225077
67324.9 0.00480418
67349.2 0.00821824
67361.3 0.0115127
67373.4 0.0172995
67385.5 0.0288949
67391.6 0.0396451
67397.7 0.0576540
67403.7 0.0913086
67406.8 0.120140
67409.8 0.164718
67412.8 0.238727
67415.9 0.371743
67417.4 0.480765
67418.9 0.637784
67420.4 0.871842
67421.9 1.21539
67424.2 1.94422
67426.4 2.42705
67428.7 1.93864
67430.9 1.21105
67433.1 0.754614
67435.3 0.495113
67437.4 0.343723
67439.6 0.250387
67441.8 0.189641
67444.0 0.148213
67448.3 0.0973786
67452.7 0.0686112
67457.0 0.0509103
67465.7 0.0311557
67474.5 0.0209951
67483.2 0.0151104
67500.6 0.00890923
67518.0 0.00588149
67535.4 0.00418284
67570.3 0.00244364
67640.0 0.00116068
67709.7 0.000700318
67849.1 0.000366195
67988.5 0.000247921
68267.3 0.000163074
68546.0 0.000133553
69103.6 0.000113181
69661.2 0.000106930
71891.5 0.000106545
74121.8 0.000121111
75236.9 0.000162822
75794.5 0.000315771
75933.9 0.000470172
76073.3 0.000900004
76143.0 0.00148298
76177.9 0.00205299
76212.7 0.00306890
76247.5 0.00515417
76265.0 0.00713711
76282.4 0.0105600
76299.8 0.0172423
76308.5 0.0232524
76317.2 0.0330252
76326.0 0.0504089
76330.3 0.0646255
76334.7 0.0854994
76339.0 0.117806
76343.4 0.170434
76347.7 0.261680
76352.1 0.423556
76356.5 0.677661
76360.9 0.846015
76365.2 0.676250
76369.6 0.422951
76374.1 0.258073
76378.6 0.166884
76383.0 0.114705
76387.5 0.0829790
76391.9 0.0625378
76396.4 0.0487006
76405.3 0.0318221
76414.2 0.0223684
76423.2 0.0165688
76441.0 0.0101374
76458.8 0.00684606
76476.7 0.00494405
76512.4 0.00294517
76548.1 0.00197185
76583.7 0.00142646
76655.1 0.000868966
76726.5 0.000604441
76797.8 0.000458578
76940.6 0.000311771
77226.1 0.000205928
77511.5 0.000169141
78082.5 0.000144147
78653.4 0.000136952
80937.2 0.000138668
85504.8 0.000167071
90072.3 0.000222640
92356.1 0.000301600
92927.1 0.000357812
93498.0 0.000494103
93783.5 0.000665221
93926.2 0.000826645
94069.0 0.00110702
94211.7 0.00166560
94283.1 0.00218314
94354.4 0.00305506
94425.8 0.00469724
94461.5 0.00612288
94497.2 0.00835594
94532.9 0.0121219
94568.5 0.0191132
94586.4 0.0250018
94604.2 0.0338028
94622.1 0.0473490
94639.9 0.0683025
94663.6 0.109313
94687.3 0.138027
94711.0 0.111796
94734.7 0.0702661
94751.8 0.0493663
94768.9 0.0355850
94786.1 0.0265044
94803.2 0.0203691
94837.4 0.0130203
94871.7 0.00903521
94905.9 0.00666565
94940.1 0.00515452
95008.6 0.00342587
95077.1 0.00252928
95145.6 0.00202420
95282.5 0.00158155
95419.5 0.00160014
95488.0 0.00180926
95556.4 0.00227277
95624.9 0.00330381
95659.2 0.00430236
95693.4 0.00602426
95727.6 0.00934072
95744.7 0.0122703
95761.9 0.0169325
95779.0 0.0249547
95796.1 0.0402881
95804.7 0.0535680
95813.2 0.0739264
95821.8 0.106190
95830.3 0.157339
95841.0 0.249189
95851.7 0.300564
95862.4 0.232478
95873.1 0.144277
95881.1 0.0999189
95889.2 0.0713864
95897.2 0.0528441
95905.3 0.0404195
95921.4 0.0256316
95937.5 0.0176426
95953.7 0.0128925
95969.8 0.00985538
96002.0 0.00635083
96034.3 0.00448738
96066.5 0.00338178
96131.0 0.00218964
96195.5 0.00159300
96260.0 0.00125122
96388.9 0.000892553
96517.9 0.000716493
96646.9 0.000616570
96904.8 0.000513105
97420.7 0.000439082
97936.5 0.000420230
98968.3 0.000436570
100000 0.000523791
100671 0.000822235
100838 0.00111057
101006 0.00190510
101090 0.00298022
101132 0.00403201
101174 0.00591013
101215 0.00977601
101236 0.0134753
101257 0.0198600
101278 0.0324646
101289 0.0439079
101299 0.0624629
101310 0.0961527
101315 0.124360
101320 0.165630
101326 0.231795
101331 0.340433
101336 0.533860
101341 0.891091
101346 1.42456
101351 1.78294
101356 1.43057
101361 0.895819
101365 0.612802
101368 0.435788
101372 0.320931
101376 0.244188
101383 0.153235
101390 0.104359
101398 0.0754217
101405 0.0569846
101420 0.0357961
101435 0.0245883
101450 0.0179665
101479 0.0108724
101509 0.00735773
101538 0.00536614
101598 0.00331148
101657 0.00232753
101716 0.00178387
101835 0.00123568
101953 0.000980340
102071 0.000842905
102308 0.000710981
102782 0.000632425
103256 0.000623427
105151 0.000727353
107046 0.000925531
107993 0.00106355
108940 0.00123769
109414 0.00134208
109888 0.00146065
110362 0.00159599
110835 0.00175130
111309 0.00193056
111783 0.00213864
112257 0.00238179
112730 0.00266789
113204 0.00300705
113678 0.00341201
114151 0.00389938
114625 0.00449039
115099 0.00521231
115573 0.00609879
116520 0.00853351
117193 0.0109445
117865 0.0139289
119210 0.0193521
119883 0.0195047
120555 0.0174295
121900 0.0112108
122811 0.00796827
123721 0.00576958
124631 0.00431411
125542 0.00334520
127363 0.00230013
128273 0.00218162
128728 0.00251875
128956 0.00385328
129013 0.00516147
129070 0.00869723
129098 0.0133443
129112 0.0177439
129127 0.0253328
129141 0.0402668
129148 0.0536375
129155 0.0753790
129162 0.114059
129166 0.146190
129169 0.192171
129173 0.265308
129176 0.381494
129180 0.588844
129183 0.948392
129187 1.52613
129191 1.90753
129194 1.52824
129198 0.963481
129202 0.553171
129206 0.342460
129210 0.228849
129214 0.162599
129218 0.121164
129222 0.0937220
129230 0.0609769
129239 0.0430263
129247 0.0321716
129263 0.0203461
129280 0.0143280
129296 0.0108812
129329 0.00730335
129394 0.00462841
129460 0.00368561
129722 0.00297457
129983 0.00326189
130245 0.00405206
130507 0.00571712
130638 0.00722614
130769 0.00965233
130900 0.0138685
131031 0.0219935
131097 0.0290859
131129 0.0339483
131162 0.0400227
131195 0.0477191
131211 0.0523124
131228 0.0574560
131244 0.0632811
131260 0.0697818
131293 0.0851551
131313 0.0962828
131334 0.108379
131374 0.133632
131415 0.153343
131455 0.157570
131496 0.143680
131536 0.119620
131617 0.0741087
131685 0.0496171
131753 0.0346394
131821 0.0252830
131889 0.0191956
132025 0.0121563
132160 0.00845330
132296 0.00628643
132432 0.00491442
132704 0.00334261
132975 0.00251042
133247 0.00201765
133790 0.00149753
134333 0.00128570
134876 0.00133828
135148 0.00158787
135284 0.00186659
135420 0.00238548
135555 0.00346946
135623 0.00449993
135691 0.00626588
135759 0.00965389
135793 0.0126477
135827 0.0173957
135861 0.0255926
135895 0.0412391
135912 0.0548703
135929 0.0758780
135946 0.109485
135963 0.163372
135983 0.261249
136004 0.326499
136025 0.261548
136045 0.164007
136065 0.101766
136086 0.0667798
136106 0.0463763
136126 0.0339110
136146 0.0257814
136167 0.0202767
136207 0.0135054
136248 0.00969158
136288 0.00734211
136369 0.00472431
136450 0.00337675
136531 0.00259226
136693 0.00175844
136855 0.00134378
137017 0.00110470
137341 0.000847156
137989 0.000628803
138637 0.000526971
139933 0.000417908
141229 0.000353076
143821 0.000272259
146413 0.000222323
151596 0.000170337
154188 0.000179441
154836 0.000202591
155484 0.000274037
155808 0.000375167
155970 0.000476169
156132 0.000659763
156294 0.00104725
156375 0.00142660
156456 0.00210342
156537 0.00349323
156578 0.00481492
156618 0.00709836
156659 0.0115552
156679 0.0155793
156699 0.0220929
156719 0.0337471
156730 0.0432272
156740 0.0571737
156750 0.0786979
156760 0.113823
156770 0.174542
156780 0.282487
156790 0.452448
156800 0.566035
156811 0.452594
156821 0.282640
156829 0.193236
156837 0.136780
156844 0.100376
156852 0.0761716
156868 0.0476271
156883 0.0323608
156899 0.0233051
156915 0.0175916
156946 0.0110357
156977 0.00756432
157008 0.00552305
157071 0.00333455
157133 0.00225128
157196 0.00163764
157321 0.00100437
157446 0.000701026
157571 0.000532619
157821 0.000361818
158321 0.000236951
158821 0.000192547
159821 0.000161677
160821 0.000154076
162821 0.000176075
163321 0.000202151
163821 0.000272911
164321 0.000634470
164571 0.00200660
164633 0.00336743
164696 0.00704310
164727 0.0118423
164743 0.0163542
164758 0.0240700
164774 0.0388932
164782 0.0520135
164789 0.0729790
164797 0.109325
164805 0.179748
164809 0.241718
164813 0.338421
164817 0.495743
164821 0.755238
164825 1.20690
164830 1.51719
164834 1.22584
164839 0.770134
164841 0.567114
164844 0.429002
164849 0.261926
164855 0.173225
164860 0.122026
164866 0.0902265
164871 0.0692705
164882 0.0443857
164893 0.0308062
164903 0.0226185
164925 0.0136833
164947 0.00918017
164968 0.00660062
165011 0.00391286
165098 0.00188965
165184 0.00115432
165357 0.000616876
165530 0.000427203
165876 0.000295261
166222 0.000255308
166913 0.000246102
167605 0.000277406
168296 0.000356100
168988 0.000567079
169334 0.000841160
169507 0.00110333
169680 0.00156330
169853 0.00248993
169939 0.00335698
170025 0.00482831
170112 0.00763341
170155 0.0100918
170198 0.0139836
170242 0.0206404
170285 0.0332706
170306 0.0441427
170328 0.0607349
170350 0.0869457
170371 0.128662
170398 0.205882
170425 0.257076
170452 0.205509
170479 0.128622
170499 0.0895661
170519 0.0641977
170538 0.0475801
170558 0.0363951
170598 0.0230399
170637 0.0158120
170677 0.0115049
170717 0.00876097
170796 0.00559948
170875 0.00392303
170954 0.00293448
171113 0.00187928
171271 0.00136236
171430 0.00107601
171747 0.000798287
172064 0.000688956
172381 0.000654445
173015 0.000703614
173648 0.000877048
173965 0.00102145
174124 0.00111327
174282 0.00122131
174441 0.00134888
174599 0.00149993
174758 0.00167947
174916 0.00189360
175075 0.00215026
175233 0.00245831
175392 0.00282875
175550 0.00327236
175810 0.00418338
176070 0.00531267
176590 0.00735639
176850 0.00740504
177110 0.00661779
177630 0.00427981
178019 0.00295662
178408 0.00209276
178796 0.00153683
179185 0.00117033
179963 0.000743735
180740 0.000519563
181517 0.000389688
182295 0.000310402
183072 0.000271638
183461 0.000313840
183656 0.000553060
183753 0.00152257
183801 0.00526831
183826 0.0191459
183838 0.0662668
183844 0.206278
183847 0.516819
183848 0.993558
183849 1.52559
183850 2.43973
183851 3.92815
183852 4.88502
183852 3.91773
183853 2.43160
183854 1.43681
183855 0.943220
183856 0.478596
183860 0.182590
183866 0.0577023
183880 0.0164145
183906 0.00451449
183959 0.00132017
184064 0.000487182
184275 0.000268940
184697 0.000203142
185541 0.000171579
187228 0.000158582
188072 0.000176609
188494 0.000200973
188916 0.000249739
189338 0.000358750
189549 0.000468699
189760 0.000668891
189971 0.00109103
190076 0.00150289
190182 0.00223338
190234 0.00283313
190287 0.00372221
190340 0.00512346
190393 0.00751805
190445 0.0121247
190472 0.0162014
190498 0.0226817
190524 0.0339375
190551 0.0555882
190564 0.0746393
190577 0.104282
190590 0.152307
190603 0.230325
190619 0.368905
190634 0.461959
190650 0.369885
190665 0.231129
190678 0.153772
190691 0.106348
190704 0.0765081
190717 0.0573171
190743 0.0351575
190768 0.0236327
190794 0.0169076
190819 0.0126940
190871 0.00789879
190922 0.00538743
190973 0.00391787
191025 0.00298355
191076 0.00235316
191179 0.00158141
191281 0.00114580
191487 0.000696738
191692 0.000481699
191897 0.000362127
192308 0.000240273
192718 0.000182090
193129 0.000149541
193950 0.000115736
195592 8.94204E-05
197234 7.96975E-05
198877 7.71535E-05
200519 8.35620E-05
202161 0.000132494
202982 0.000320303
203188 0.000503057
203290 0.000678541
203393 0.000984654
203496 0.00159310
203547 0.00215064
203598 0.00307608
203650 0.00477418
203675 0.00620955
203701 0.00838218
203727 0.0119017
203752 0.0179935
203778 0.0295699
203791 0.0391500
203803 0.0526916
203825 0.0843269
203846 0.105244
203867 0.0841064
203888 0.0526455
203912 0.0305683
203936 0.0191093
203960 0.0128466
203984 0.00915888
204008 0.00682843
204032 0.00528461
204080 0.00343228
204128 0.00240968
204176 0.00179061
204271 0.00111085
204367 0.000766139
204463 0.000568201
204654 0.000361870
204845 0.000262448
205037 0.000207521
205419 0.000153226
205802 0.000130003
206185 0.000120298
206950 0.000122641
207715 0.000153728
208481 0.000258697
208863 0.000408032
209246 0.000827726
209437 0.00139902
209533 0.00195822
209629 0.00295448
