Fe-56(n,tot) ENDF/B-VII.1
Energy(eV) XS(b)
1.00000E-05 142.259
1.25000E-05 128.513
1.50000E-05 118.365
2.00000E-05 104.122
2.75000E-05 90.5695
3.50000E-05 81.6502
4.25000E-05 75.2113
5.00000E-05 70.2820
6.25000E-05 64.1344
7.50000E-05 59.5964
0.000100000 53.2266
0.000125000 48.8796
0.000150000 45.6708
0.000200000 41.1666
0.000275000 36.8810
0.000350000 34.0604
0.000425000 32.0243
0.000500000 30.4655
0.000625000 28.5214
0.000750000 27.0864
0.00100000 25.0721
0.00125000 23.6975
0.00150000 22.6827
0.00200000 21.2584
0.00275000 19.9031
0.00350000 19.0112
0.00425000 18.3673
0.00500000 17.8744
0.00625000 17.2596
0.00750000 16.8058
0.0100000 16.1688
0.0125000 15.7341
0.0150000 15.4132
0.0200000 14.9628
0.0253000 14.6399
0.0314750 14.3721
0.0376500 14.1732
0.0500000 13.8925
0.0625000 13.6980
0.0750000 13.5545
0.100000 13.3529
0.125000 13.2153
0.150000 13.1138
0.200000 12.9711
0.275000 12.8353
0.350000 12.7457
0.414000 12.6894
0.414000 12.6894
0.414001 12.6894
0.414002 12.6894
0.414003 12.6894
0.414005 12.6894
0.414011 12.6894
0.414021 12.6894
0.414042 12.6894
0.414084 12.6893
0.414168 12.6893
0.414336 12.6891
0.414672 12.6889
0.415344 12.6884
0.416688 12.6873
0.419375 12.6853
0.424750 12.6812
0.435500 12.6733
0.457000 12.6584
0.500000 12.6314
0.625000 12.5694
0.750000 12.5235
1.00000 12.4587
1.50000 12.3811
2.00000 12.3340
2.75000 12.2880
3.50000 12.2567
5.00000 12.2146
7.50000 12.1707
10.0000 12.1404
15.0000 12.0963
20.0000 12.0620
27.5000 12.0186
35.0000 11.9801
50.0000 11.9101
75.0000 11.8037
100.000 11.7038
150.000 11.5155
200.000 11.3381
275.000 11.0880
350.000 10.8543
500.000 10.4282
750.000 9.81754
999.999 9.30430
1000.00 9.30430
1000.01 9.30429
1000.01 9.30428
1000.02 9.30426
1000.04 9.30423
1000.07 9.30416
1000.15 9.30402
1000.29 9.30375
1000.59 9.30320
1001.17 9.30210
1002.34 9.29991
1004.67 9.29553
1009.34 9.28679
1018.67 9.26941
1037.35 9.23509
1074.69 9.16891
1093.37 9.13839
1102.70 9.12484
1112.04 9.11399
1121.37 9.10984
1126.04 9.11396
1130.71 9.12832
1133.04 9.14325
1135.38 9.16825
1137.71 9.21187
1140.05 9.29415
1141.21 9.36431
1142.38 9.47166
1143.55 9.64683
1144.71 9.96001
1145.30 10.2182
1145.88 10.6023
1146.47 11.2116
1147.05 12.2576
1147.63 14.2866
1147.92 16.0980
1148.22 19.0055
1148.51 24.1230
1148.80 34.2344
1148.95 43.3171
1149.09 57.7892
1149.24 81.9906
1149.38 122.872
1149.54 191.244
1149.70 236.856
1149.86 191.269
1150.02 122.908
1150.14 86.9388
1150.26 64.1135
1150.39 49.4099
1150.51 39.6419
1150.75 28.1340
1151.00 21.9855
1151.24 18.3589
1151.48 16.0542
1151.97 13.4118
1152.46 12.0147
1152.95 11.1922
1153.44 10.6669
1153.92 10.3112
1154.90 9.87381
1155.88 9.62561
1156.85 9.47079
1157.83 9.36772
1159.78 9.24248
1161.74 9.17148
1163.69 9.12674
1165.64 9.09623
1169.55 9.05724
1173.45 9.03281
1177.36 9.01536
1181.27 9.00167
1189.08 8.98007
1196.89 8.96232
1212.51 8.93155
1243.76 8.87656
1275.01 8.82461
1400.00 8.62901
1400.00 8.62900
1400.01 8.62899
1400.01 8.62899
1400.02 8.62897
1400.04 8.62894
1400.09 8.62887
1400.17 8.62875
1400.34 8.62849
1400.69 8.62797
1401.37 8.62694
1402.74 8.62489
1405.47 8.62078
1410.94 8.61258
1421.88 8.59626
1443.75 8.56390
1487.51 8.50033
1575.01 8.37753
1787.50 8.10098
2000.00 7.85114
2000.00 7.85114
2000.01 7.85113
2000.01 7.85113
2000.02 7.85111
2000.04 7.85109
2000.09 7.85104
2000.17 7.85095
2000.34 7.85076
2000.68 7.85038
2001.37 7.84961
2002.73 7.84809
2005.46 7.84504
2010.91 7.83895
2021.82 7.82683
2043.64 7.80275
2087.28 7.75528
2174.56 7.66299
2261.84 7.57406
2305.49 7.53082
2327.31 7.50961
2338.22 7.49953
2343.67 7.49618
2346.40 7.50015
2347.76 7.51817
2348.44 7.56092
2348.79 7.62732
2349.13 7.80980
2349.31 8.00307
2349.50 8.13095
2349.69 8.00173
2349.88 7.80923
2350.19 7.63301
2350.51 7.56493
2351.15 7.51814
2352.42 7.49559
2354.96 7.48568
2360.03 7.47858
2370.19 7.46823
2390.51 7.44870
2431.14 7.41038
2512.41 7.33562
2674.94 7.19290
3000.00 6.93152
3000.00 6.93152
3000.01 6.93151
3000.01 6.93151
3000.03 6.93150
3000.05 6.93148
3000.10 6.93144
3000.20 6.93137
3000.39 6.93122
3000.78 6.93093
3001.55 6.93034
3003.10 6.92916
3006.20 6.92681
3012.41 6.92211
3033.11 6.90651
3053.82 6.89101
3095.22 6.86033
3178.04 6.80020
3343.67 6.68462
3674.94 6.47023
4500.00 6.01359
4500.00 6.01359
4500.01 6.01359
4500.02 6.01358
4500.03 6.01357
4500.06 6.01356
4500.12 6.01353
4500.25 6.01347
4500.49 6.01334
4500.98 6.01310
4501.96 6.01261
4503.91 6.01164
4507.81 6.00970
4515.63 6.00581
4531.25 5.99807
4562.50 5.98265
4625.00 5.95216
4750.00 5.89244
5000.00 5.77777
5000.00 5.77777
5000.01 5.77777
5000.01 5.77777
5000.02 5.77776
5000.05 5.77775
5000.09 5.77773
5000.19 5.77769
5000.37 5.77761
5000.73 5.77744
5001.47 5.77712
5002.93 5.77646
5005.86 5.77516
5011.72 5.77254
5023.44 5.76733
5046.88 5.75693
5093.75 5.73630
5187.50 5.69560
5375.00 5.61644
5750.00 5.46622
6500.00 5.19307
6500.00 5.19306
6500.01 5.19306
6500.02 5.19306
6500.03 5.19305
6500.06 5.19304
6500.12 5.19302
6500.25 5.19298
6500.49 5.19290
6500.98 5.19273
6501.96 5.19239
6503.91 5.19172
6507.81 5.19038
6515.63 5.18771
6531.25 5.18236
6562.50 5.17170
6625.00 5.15054
6750.00 5.10876
7000.00 5.02734
7500.00 4.87212
9000.00 4.45351
9000.00 4.45351
9000.01 4.45351
9000.02 4.45351
9000.03 4.45350
9000.06 4.45349
9000.12 4.45348
9000.25 4.45345
9000.49 4.45338
9000.98 4.45326
9001.96 4.45300
9003.91 4.45249
9007.81 4.45147
9015.63 4.44944
9031.25 4.44538
9062.50 4.43726
9125.00 4.42109
9250.00 4.38897
9500.00 4.32558
9999.99 4.20184
10000.0 4.20184
10000.1 4.20182
10000.2 4.20180
10000.3 4.20176
10000.6 4.20169
10001.2 4.20154
10002.4 4.20125
10004.8 4.20067
10009.6 4.19950
10019.1 4.19717
10038.3 4.19252
10076.5 4.18322
10153.0 4.16469
10306.0 4.12785
10612.0 4.05498
11223.9 3.91199
11835.8 3.77176
12141.8 3.70236
12294.8 3.66778
12371.3 3.65052
12409.5 3.64192
12428.7 3.63774
12438.2 3.63610
12443.0 3.63701
12445.4 3.64364
12446.6 3.66664
12447.2 3.72829
12447.5 3.84715
12447.8 4.30637
12448.0 4.97858
12448.2 4.30783
12448.6 3.82858
12448.9 3.71873
12449.5 3.66230
12450.8 3.64138
12453.4 3.63442
12458.6 3.63147
12468.9 3.62867
12489.6 3.62388
12531.0 3.61451
12613.8 3.59585
12779.5 3.55858
13110.7 3.48407
13773.1 3.33473
15098.0 3.03062
16422.9 2.71119
17085.3 2.54238
17416.5 2.45505
17582.2 2.41056
17665.0 2.38811
17706.4 2.37691
17727.1 2.37165
17737.4 2.37045
17742.6 2.37544
17745.2 2.39812
17746.5 2.47371
17747.1 2.67913
17747.4 3.07377
17747.6 3.58357
17747.8 4.78605
17748.0 7.20709
17748.2 4.79480
17748.5 3.20113
17748.8 2.76240
17749.3 2.51001
17750.4 2.40948
17752.6 2.37676
17757.0 2.36638
17765.8 2.36147
17783.4 2.35596
17818.6 2.34610
17889.0 2.32659
18029.7 2.28733
18311.2 2.20738
18874.1 2.04114
20000.0 1.67889
20000.0 1.67888
20000.1 1.67887
20000.1 1.67885
20000.2 1.67883
20000.3 1.67877
20000.7 1.67866
20001.3 1.67844
20002.6 1.67799
20005.3 1.67709
20010.5 1.67530
20021.0 1.67172
20041.9 1.66454
20083.8 1.65014
20125.7 1.63574
20146.7 1.62881
20157.2 1.62649
20162.4 1.62954
20165.0 1.64514
20166.3 1.69249
20167.0 1.79617
20167.6 2.36108
20168.0 3.10067
20168.4 2.36086
20169.0 1.79851
20169.7 1.69298
20170.9 1.64386
20173.5 1.62592
20178.7 1.61908
20188.9 1.61412
20209.5 1.60658
20250.6 1.59207
20332.9 1.56301
20497.3 1.50411
20826.3 1.38298
21484.2 1.12695
22142.1 0.853283
22471.0 0.711229
22635.5 0.639662
22717.8 0.604854
22758.9 0.591831
22779.4 0.602354
22784.6 0.619453
22789.7 0.668821
22792.3 0.733573
22794.9 0.895140
22796.2 1.08439
22797.4 1.49055
22798.1 1.89205
22798.7 2.60179
22799.4 3.97947
22799.7 5.15191
22800.0 6.84393
22800.5 10.6786
22801.0 13.1857
22801.5 10.6246
22802.0 6.87628
22802.4 4.88696
22802.8 3.61583
22803.6 2.26926
22804.3 1.62697
22805.1 1.28804
22806.7 0.957728
22808.2 0.810695
22811.3 0.685272
22814.4 0.634644
22820.6 0.593446
22826.8 0.576289
22851.5 0.550585
22901.0 0.524915
23000.0 0.480720
23000.0 0.480711
23000.1 0.480681
23000.1 0.480654
23000.3 0.480602
23000.5 0.480493
23001.0 0.480274
23002.0 0.479836
23004.0 0.478960
23008.0 0.477215
23016.0 0.473728
23031.9 0.466767
23063.9 0.452895
23127.7 0.425324
23255.4 0.370887
23510.8 0.265929
24021.5 0.0870933
24149.2 0.0537549
24276.9 0.0274539
24340.7 0.0174765
24404.6 0.00995001
24468.4 0.00515816
24532.3 0.00341909
24596.1 0.00508816
24660.0 0.0105610
24723.8 0.0202824
24787.6 0.0347449
24851.5 0.0545089
24915.3 0.0801916
25043.0 0.152212
25170.7 0.257557
25298.4 0.404816
25426.1 0.605026
25553.8 0.872432
25809.1 1.68916
26064.5 3.08698
26319.9 5.48066
26575.3 9.63049
26830.6 16.9344
27086.0 29.7715
27438.5 61.0236
27791.0 93.3837
27967.3 96.2237
28143.5 89.4231
28496.0 66.6818
28777.5 51.5958
29059.0 40.9236
29340.5 33.4896
29622.0 28.2017
30185.0 21.4070
30748.0 17.3526
31311.0 14.7112
31874.0 12.8722
33000.0 10.4987
33000.0 10.4986
33000.1 10.4985
33000.2 10.4984
33000.3 10.4981
33000.6 10.4977
33001.2 10.4967
33002.4 10.4948
33004.8 10.4909
33009.6 10.4832
33019.3 10.4678
33038.5 10.4373
33077.1 10.3769
33154.1 10.2591
33308.2 10.0342
33616.3 9.62352
33770.4 9.43551
33924.5 9.25787
34001.5 9.17279
34078.5 9.09046
34155.6 9.01375
34194.1 8.99103
34203.7 8.99837
34213.4 9.03546
34218.2 9.09218
34223.0 9.24527
34225.4 9.43562
34227.8 9.87585
34229.0 10.3521
34230.2 11.2712
34230.8 12.0807
34231.4 13.3444
34232.0 15.4001
34232.6 18.7896
34233.3 24.7585
34234.0 28.7716
34234.7 24.8079
34235.4 18.8488
34236.0 15.4100
34236.6 13.3371
34237.2 12.0691
34237.8 11.2593
34239.1 10.3416
34240.3 9.87155
34242.7 9.42682
34245.1 9.23173
34250.0 9.06748
34254.9 8.99989
34264.6 8.94163
34274.3 8.91380
34313.2 8.85671
34391.0 8.77613
34546.5 8.62934
34702.1 8.49067
34857.7 8.35868
35479.9 7.88736
36102.2 7.48970
36413.3 7.31302
36568.9 7.22953
36646.7 7.18961
36685.6 7.17369
36705.0 7.18230
36714.7 7.25166
36719.6 7.51812
36720.8 7.76521
36722.0 8.35929
36722.6 9.03710
36723.2 10.4564
36723.9 14.1206
36724.2 18.2544
36724.5 26.2629
36724.7 37.9231
36725.0 45.5754
36725.3 38.0825
36725.5 26.4615
36725.8 20.5219
36726.0 16.5994
36726.4 12.4662
36726.8 10.4629
36727.2 9.41559
36728.0 8.38589
36728.9 7.92915
36730.5 7.53906
36732.2 7.38216
36738.8 7.20990
36752.0 7.15489
36778.4 7.12793
36831.3 7.09753
36937.0 7.04438
37148.5 6.94368
37571.5 6.75599
37994.5 6.58379
38206.0 6.50285
38311.8 6.46384
38364.6 6.44612
38391.1 6.44391
38404.3 6.46937
38410.9 6.58163
38412.6 6.69089
38414.2 6.97180
38415.0 7.31611
38415.9 8.09760
38416.3 8.95229
38416.7 10.5689
38417.1 14.1685
38417.3 17.7992
38417.5 23.4580
38417.8 33.9258
38418.0 40.6134
38418.2 34.0276
38418.5 23.5804
38418.7 17.2720
38419.0 13.6332
38419.4 10.0843
38419.9 8.59688
38420.4 7.86560
38421.3 7.18359
38422.2 6.89145
38424.1 6.65147
38425.9 6.55816
38433.4 6.45744
38448.3 6.42475
38478.1 6.40654
38537.7 6.38323
38657.0 6.34090
38895.5 6.25992
39372.5 6.10777
40326.4 5.83604
42234.4 5.39021
44142.3 5.03373
44619.3 4.95472
45096.3 4.87915
45334.8 4.84276
45573.3 4.80800
45692.6 4.79227
45811.8 4.78099
45871.4 4.78156
45901.2 4.78674
45931.1 4.80014
45960.9 4.83422
45975.8 4.87049
45990.7 4.93811
46005.6 5.08279
46013.0 5.22440
46020.5 5.47531
46024.2 5.68028
46027.9 5.98302
46031.7 6.45617
46035.4 7.25117
46039.1 8.74523
46041.0 10.0287
46042.8 12.0192
46044.7 15.3452
46046.6 21.3451
46047.5 26.2680
46048.4 33.4384
46049.4 44.1157
46050.3 59.9989
46051.7 93.4366
46053.0 115.775
46054.4 93.7532
46055.7 60.5974
46057.2 38.2020
46058.6 26.0770
46060.0 19.2697
46061.5 15.1856
46062.9 12.5786
46064.4 10.8256
46067.2 8.70618
46070.1 7.52047
46073.0 6.79745
46078.7 5.99491
46084.5 5.58409
46090.2 5.34590
46096.0 5.19539
46101.7 5.09410
46113.2 4.97003
46124.7 4.89935
46147.7 4.82487
46170.7 4.78734
46193.7 4.76491
46239.7 4.73871
46331.7 4.71091
46423.8 4.69246
46607.8 4.66262
46791.8 4.63572
47159.8 4.58482
47527.9 4.53590
49000.0 4.35211
49000.0 4.35211
49000.1 4.35210
49000.1 4.35210
49000.3 4.35208
49000.5 4.35205
49001.0 4.35200
49002.0 4.35188
49003.9 4.35164
49007.8 4.35118
49015.6 4.35024
49031.3 4.34838
49062.5 4.34465
49125.0 4.33722
49250.0 4.32243
49500.0 4.29313
50000.0 4.23564
50532.8 4.17609
50799.2 4.14716
51065.6 4.11922
51332.0 4.09353
51465.2 4.08277
51598.4 4.07558
51731.6 4.07763
51798.2 4.08749
51864.8 4.11217
51898.1 4.13582
51931.4 4.17417
51964.7 4.23961
51998.0 4.36082
52014.6 4.46274
52031.3 4.61665
52047.9 4.86336
52064.6 5.29259
52081.2 6.13363
52089.6 6.89139
52097.9 8.11975
52106.2 10.2967
52114.5 14.6394
52118.7 18.5787
52122.8 24.9147
52127.0 35.6421
52131.2 54.2092
52135.6 84.6351
52140.0 105.211
52144.4 85.3344
52148.8 55.0527
52151.6 41.6081
52154.4 32.2020
52159.9 21.0386
52165.4 15.2030
52170.9 11.8765
52176.4 9.81983
52181.9 8.47217
52193.0 6.87524
52204.0 6.00333
52215.0 5.47712
52237.1 4.89965
52259.1 4.60554
52281.2 4.43493
52303.2 4.32655
52325.3 4.25297
52369.4 4.16123
52413.5 4.10721
52457.6 4.07176
52501.7 4.04653
52589.9 4.01220
52678.1 3.98875
52854.5 3.95549
53030.9 3.92987
53207.3 3.90742
53383.7 3.88663
53471.9 3.87759
53516.0 3.87894
53538.1 3.90540
53549.1 4.01884
53551.9 4.13011
53554.6 4.41561
53556.0 4.76322
53557.4 5.55917
53558.1 6.40042
53558.8 8.00818
53559.5 11.5376
53559.8 14.8733
53560.1 20.3426
53560.6 30.2384
53561.0 37.1033
53561.4 30.4764
53561.9 20.6319
53562.3 13.9859
53562.8 10.3480
53563.7 7.06311
53564.6 5.74090
53565.5 5.09390
53567.3 4.51042
53569.0 4.26478
53572.6 4.06376
53576.2 3.98499
53590.6 3.89957
53619.3 3.87197
53648.0 3.86350
53662.4 3.86093
53669.6 3.86160
53673.2 3.87007
53675.0 3.90430
53675.9 4.01107
53676.3 4.25966
53676.8 5.73755
53677.0 7.67765
53677.2 5.79869
53677.6 4.45575
53677.9 4.12584
53678.6 3.95527
53680.0 3.88957
53682.7 3.86779
53688.1 3.86032
53698.9 3.85665
53720.6 3.85302
53764.0 3.84740
53850.8 3.83740
54024.3 3.81861
54371.3 3.78242
55065.3 3.71204
56453.3 3.57416
57841.3 3.43653
58535.4 3.36654
58882.4 3.33159
58969.1 3.32404
59055.9 3.32067
59099.3 3.32560
59142.6 3.35112
59164.3 3.39315
59175.2 3.43716
59186.0 3.51882
59196.9 3.69281
59202.3 3.86208
59207.7 4.15937
59213.1 4.74967
59215.8 5.28796
59218.5 6.17280
59221.2 7.76721
59222.6 9.08974
59224.0 11.0405
59225.3 14.1122
59226.7 19.1683
59228.0 28.1651
59229.4 44.4658
59230.7 69.6733
59232.0 86.6166
59233.3 70.2111
59234.6 45.4130
59236.1 27.7585
59237.6 18.6286
59239.1 13.6107
59240.6 10.6760
59242.1 8.81310
59243.6 7.57924
59246.6 6.08874
59249.6 5.26325
59252.6 4.75946
59258.6 4.20164
59264.5 3.91527
59270.5 3.74839
59282.5 3.57042
59294.4 3.48149
59306.4 3.43010
59330.3 3.37486
59378.1 3.32880
59426.0 3.30792
59521.6 3.28533
59617.3 3.27035
59808.7 3.24635
60000.0 3.22474
60000.0 3.22474
60868.3 3.13103
61736.7 3.03594
62605.0 2.93687
63039.2 2.88515
63256.2 2.85829
63364.8 2.84448
63419.1 2.83954
63446.2 2.85057
63459.8 2.91764
63466.5 3.18703
63468.2 3.44495
63469.9 4.08492
63470.8 4.83565
63471.6 6.46340
63472.5 10.9352
63472.9 16.3929
63473.3 27.7621
63473.7 42.8646
63474.0 53.2941
63474.3 43.3708
63474.7 28.4005
63475.0 19.6463
63475.3 14.3927
63475.8 9.05135
63476.4 6.65849
63477.0 5.41390
63478.2 4.23570
63479.3 3.71686
63481.6 3.28195
63484.0 3.10765
63493.3 2.91586
63511.8 2.85623
63549.0 2.83383
63623.3 2.81858
63771.9 2.79765
64069.2 2.75870
64663.6 2.67927
65852.6 2.50636
67041.5 2.30658
68230.5 2.06603
69419.5 1.76010
70013.9 1.56917
70608.4 1.34083
71202.9 1.06094
71797.4 0.711648
72094.6 0.507581
72391.8 0.290514
72540.5 0.184422
72689.1 0.0898893
72763.4 0.0516198
72837.7 0.0235923
72912.0 0.0126230
72949.2 0.0256720
72967.7 0.0745552
72977.0 0.226950
72981.7 0.628506
72984.0 1.40685
72985.2 2.41517
72986.3 4.62542
72987.2 7.40478
72988.0 9.22508
72988.9 7.36228
72989.7 4.61593
72990.4 3.04713
72991.1 2.09048
72992.6 1.12482
72995.4 0.468481
73001.2 0.166569
73012.6 0.0649582
73035.5 0.0445716
73081.4 0.0688767
73127.2 0.117734
73173.0 0.189884
73218.9 0.290391
73264.7 0.426423
73356.4 0.845799
73448.0 1.56340
73539.7 2.77547
73631.3 4.81516
73723.0 8.21928
73799.5 12.6229
73876.0 18.7626
74029.0 32.8399
74105.5 36.2055
74182.0 35.4716
74335.0 28.0453
74506.6 20.2553
74678.1 15.2781
74849.7 12.1568
75021.3 10.1008
75192.8 8.67084
75364.4 7.62801
75707.5 6.21551
76050.7 5.29992
76393.8 4.64952
76737.0 4.15379
76822.7 4.04657
76908.5 3.94520
76994.3 3.85453
77037.2 3.84134
77047.9 3.86623
77058.6 3.95654
77064.0 4.08518
77069.4 4.42154
77072.0 4.82653
77074.7 5.73084
77076.1 6.65501
77077.4 8.34751
77078.1 9.74965
77078.7 11.8093
77079.4 14.9076
77080.1 19.6215
77081.0 29.2957
77082.0 35.9714
77083.0 29.6948
77083.9 20.1029
77084.8 14.0832
77085.8 10.5988
77086.7 8.54657
77087.6 7.28261
77089.4 5.87363
77091.2 5.16183
77094.9 4.50051
77098.6 4.21359
77105.9 3.97113
77113.2 3.87020
77127.9 3.78141
77142.5 3.73789
77201.2 3.64740
77318.4 3.52309
77435.7 3.41157
77552.9 3.30606
78021.9 2.92177
78959.8 2.24166
79428.8 1.91051
79897.8 1.56963
80366.8 1.21822
80484.0 1.13588
80542.6 1.10025
80601.3 1.07431
80659.9 1.07296
80689.2 1.09500
80718.5 1.15380
80733.2 1.21051
80747.8 1.30164
80762.5 1.45477
80777.1 1.73080
80791.8 2.29014
80799.1 2.80701
80806.4 3.66523
80813.8 5.24007
80817.4 6.56647
80821.1 8.56895
80824.8 11.7901
80828.4 17.3226
80832.1 27.6418
80835.7 47.9237
80838.9 76.2167
80842.0 95.0896
80845.1 76.2215
80848.3 47.9302
80850.4 34.5071
80852.5 25.4810
80854.6 19.3866
80856.8 15.1833
80861.0 10.0333
80865.2 7.17304
80869.5 5.43832
80873.7 4.31825
80882.2 3.00907
80890.7 2.30289
80899.2 1.87953
80916.1 1.41548
80933.1 1.17636
80950.1 1.03395
80967.0 0.939776
80984.0 0.872357
81017.9 0.779545
81051.9 0.715053
81119.7 0.621073
81187.6 0.546374
81255.5 0.479817
81391.2 0.358640
81662.7 0.151193
81798.4 0.0721113
81866.3 0.0422574
81934.1 0.0209547
82002.0 0.0102337
82069.9 0.0126147
82137.7 0.0312082
82205.6 0.0698561
82273.5 0.133340
82341.3 0.227577
82409.2 0.359932
82477.1 0.539535
82612.8 1.08900
82748.5 2.00409
82884.3 3.47806
83020.0 5.78463
83172.0 9.76327
83324.0 15.4990
83628.0 28.6891
83780.0 31.9097
83932.0 31.6837
84236.0 26.3055
84426.3 22.6834
84616.7 19.6782
84997.4 15.4216
85378.0 12.7376
85758.7 10.9541
86139.4 9.70197
86520.1 8.78101
87281.4 7.52243
88042.8 6.70290
88804.1 6.12457
89184.8 5.89437
89375.1 5.79095
89565.5 5.69509
89755.8 5.60830
89851.0 5.57026
89946.1 5.53938
90041.3 5.52515
90088.9 5.53315
90136.5 5.56575
90160.3 5.60048
90184.1 5.65865
90207.9 5.75917
90231.6 5.94425
90255.4 6.32400
90267.3 6.67657
90279.2 7.26187
90291.1 8.32874
90297.1 9.21730
90303.0 10.5443
90309.0 12.6388
90314.9 16.1513
90320.9 22.4483
90326.8 34.1465
90332.4 51.7987
90338.0 63.9625
90343.6 52.6878
90349.2 35.1775
90353.8 25.4057
90358.4 19.3221
90363.0 15.4857
90367.6 12.9875
90376.8 10.0892
90386.0 8.56167
90395.3 7.66597
90404.5 7.09738
90422.9 6.44283
90441.3 6.09287
90459.7 5.88223
90478.1 5.74425
90496.6 5.64794
90533.4 5.52296
90570.2 5.44507
90607.1 5.39084
90643.9 5.34992
90717.6 5.28944
90791.2 5.24383
90938.6 5.17231
91085.9 5.11294
91233.3 5.05965
91528.0 4.96344
91822.7 4.87620
92117.3 4.79550
92412.0 4.72049
92559.4 4.68669
92633.1 4.67820
