Co-59(n,g) ENDF/B-VII.1
Energy(eV) XS(b)
1.00000E-05 1869.12
1.25000E-05 1671.79
1.50000E-05 1526.13
2.00000E-05 1321.67
2.75000E-05 1127.12
3.50000E-05 999.088
4.25000E-05 906.658
5.00000E-05 835.897
6.25000E-05 747.649
7.50000E-05 682.507
0.000100000 591.069
0.000125000 528.668
0.000150000 482.606
0.000200000 417.949
0.000275000 356.429
0.000350000 315.941
0.000425000 286.712
0.000500000 264.335
0.000625000 236.429
0.000750000 215.830
0.00100000 186.914
0.00125000 167.182
0.00150000 152.616
0.00200000 132.170
0.00275000 112.716
0.00350000 99.9128
0.00425000 90.6702
0.00500000 83.5945
0.00625000 74.7703
0.00750000 68.2566
0.0100000 59.1137
0.0125000 52.8744
0.0150000 48.2690
0.0200000 41.8046
0.0253000 37.1711
0.0314750 33.3284
0.0376500 30.4752
0.0500000 26.4488
0.0625000 23.6600
0.0750000 21.6017
0.100000 18.7131
0.125000 16.7424
0.150000 15.2881
0.200000 13.2476
0.275000 11.3075
0.350000 10.0319
0.500000 8.40807
0.750000 6.88540
1.00000 5.98055
1.50000 4.91215
2.00000 4.27950
2.75000 3.68263
3.50000 3.29414
5.00000 2.80738
7.50000 2.36555
10.0000 2.11620
15.0000 1.84932
20.0000 1.72147
27.5000 1.65041
35.0000 1.66403
50.0000 1.87908
62.5000 2.28004
75.0000 3.02705
81.2500 3.63346
87.5000 4.51358
93.7500 5.85315
100.000 8.03168
103.641 9.99533
107.283 12.8594
110.924 17.2728
114.565 24.5913
118.206 38.0381
120.027 49.4151
121.848 66.7851
123.668 95.0305
125.489 144.741
127.309 240.769
128.220 322.135
129.130 439.007
130.565 697.603
132.000 863.056
133.435 683.509
134.870 424.471
135.888 298.448
136.905 215.096
137.923 159.892
138.941 122.418
140.976 77.2890
143.011 52.6859
145.047 38.0001
147.082 28.6006
151.153 17.7701
155.223 12.0415
159.294 8.66599
163.364 6.51832
167.435 5.07141
175.576 3.30914
183.718 2.32194
191.859 1.71640
200.000 1.31971
218.750 0.802431
237.500 0.542026
256.250 0.393643
275.000 0.301478
312.500 0.198019
350.000 0.144370
387.500 0.112923
425.000 0.0928101
500.000 0.0692052
625.000 0.0502389
750.000 0.0406844
1000.00 0.0310359
1192.78 0.0270646
1289.16 0.0257012
1337.36 0.0253442
1361.45 0.0260703
1373.50 0.0298858
1376.51 0.0338539
1379.53 0.0448976
1381.03 0.0597644
1381.79 0.0741796
1382.54 0.0996274
1383.29 0.151012
1383.67 0.199074
1384.04 0.280232
1384.42 0.434168
1384.61 0.567846
1384.80 0.777615
1384.99 1.13429
1385.17 1.79536
1385.27 2.35301
1385.36 3.18723
1385.46 4.47159
1385.55 6.45512
1385.68 10.3041
1385.80 12.8664
1385.93 10.3050
1386.05 6.45622
1386.20 3.64053
1386.35 2.22966
1386.50 1.48163
1386.65 1.05021
1386.80 0.782394
1386.95 0.605958
1387.25 0.396507
1387.55 0.282238
1387.85 0.213349
1388.45 0.138260
1389.05 0.100332
1389.65 0.0786342
1390.85 0.0559872
1393.25 0.0389205
1395.64 0.0326806
1400.44 0.0280703
1405.24 0.0263905
1424.42 0.0245950
1462.79 0.0238169
1539.54 0.0230570
1693.03 0.0220122
2000.00 0.0209344
2138.47 0.0208543
2207.71 0.0210535
2242.33 0.0217984
2259.64 0.0246337
2263.97 0.0275112
2268.29 0.0355416
2270.46 0.0464645
2272.62 0.0762805
2273.70 0.115682
2274.24 0.153299
2274.79 0.218580
2275.33 0.346915
2275.60 0.463607
2275.87 0.654329
2276.14 0.999460
2276.27 1.28421
2276.41 1.70862
2276.54 2.37533
2276.68 3.49051
2276.81 5.48629
2276.95 9.19631
2277.07 14.6963
2277.20 18.3608
2277.33 14.6970
2277.45 9.19724
2277.60 5.33146
2277.74 3.32457
2277.88 2.23259
2278.02 1.59512
2278.17 1.19111
2278.31 0.924238
2278.59 0.602978
2278.88 0.426063
2279.16 0.318744
2279.73 0.200968
2280.30 0.141298
2280.87 0.107002
2282.01 0.0711562
2284.29 0.0440891
2286.57 0.0341985
2291.13 0.0269372
2295.69 0.0243451
2313.94 0.0218274
2350.42 0.0212577
2423.38 0.0213062
2569.31 0.0219323
2715.25 0.0231512
2788.21 0.0249429
2824.69 0.0300163
2833.81 0.0349704
2838.37 0.0398720
2842.93 0.0487806
2847.50 0.0677114
2849.78 0.0864296
2852.06 0.120258
2854.34 0.191230
2855.48 0.260361
2856.62 0.383088
2857.19 0.483700
2857.76 0.633220
2858.33 0.869210
2858.90 1.27340
2859.47 2.05170
2859.75 2.74229
2860.04 3.84865
2860.32 5.77382
2860.61 9.52560
2860.75 12.8615
2860.89 18.0615
2861.03 26.6495
2861.18 40.8400
2861.34 65.4518
2861.50 81.7415
2861.66 65.2902
2861.83 40.8413
2861.96 26.9616
2862.10 18.5331
2862.24 13.2760
2862.38 9.91429
2862.65 6.05749
2862.93 4.05754
2863.20 2.90050
2863.48 2.17496
2864.03 1.35371
2864.58 0.925482
2865.13 0.674789
2865.68 0.515660
2866.23 0.408435
2867.33 0.277458
2868.43 0.203579
2870.62 0.127668
2872.82 0.0914376
2875.02 0.0713915
2879.42 0.0511497
2883.82 0.0416580
2888.22 0.0364748
2897.02 0.0313251
2932.21 0.0266128
3002.60 0.0262336
3143.38 0.0281987
3284.16 0.0312123
3424.94 0.0353754
3565.71 0.0412297
3706.49 0.0498692
3847.27 0.0638316
3917.66 0.0748974
3952.85 0.0831319
3970.45 0.0918862
3979.25 0.112289
3981.45 0.131325
3983.65 0.183215
3984.75 0.252905
3985.30 0.320701
3985.85 0.441048
3986.40 0.686500
3986.67 0.918341
3986.95 1.31600
3987.22 2.08355
3987.36 2.76943
3987.50 3.86321
3987.64 5.78881
3987.77 9.53691
3987.84 12.8999
3987.91 18.1258
3987.98 26.8774
3988.05 41.3328
3988.12 66.1213
3988.20 82.6645
3988.28 66.1211
3988.35 41.3333
3988.42 26.7159
3988.49 18.0303
3988.56 12.7811
3988.63 9.46025
3988.77 5.73390
3988.91 3.83366
3989.04 2.74591
3989.18 2.06874
3989.46 1.30748
3989.73 0.913095
3990.01 0.683193
3990.56 0.440195
3991.11 0.320904
3991.67 0.253839
3992.77 0.185241
3994.98 0.134871
3997.18 0.117180
4006.01 0.101805
4023.66 0.103138
4058.97 0.116718
4129.58 0.166494
4164.88 0.213187
4200.19 0.293839
4235.50 0.449826
4253.15 0.584136
4270.80 0.781107
4296.95 1.20020
4323.10 1.49497
4349.25 1.23300
4375.40 0.817403
4394.18 0.611569
4412.96 0.477806
4450.53 0.335812
4488.09 0.274763
4525.65 0.249450
4600.78 0.246370
4675.90 0.274778
4837.95 0.388597
5000.00 0.467797
5016.00 0.466768
5058.51 0.454655
5101.03 0.430593
5186.05 0.361074
5356.10 0.223057
5485.18 0.153425
5614.25 0.108920
5743.33 0.0802561
5872.40 0.0612302
6130.55 0.0391185
6259.63 0.0336786
6324.17 0.0364149
6340.30 0.0413586
6356.43 0.0562830
6364.50 0.0770594
6368.54 0.0975234
6372.57 0.134124
6376.60 0.209443
6378.62 0.281152
6380.64 0.405071
6382.65 0.647302
6383.66 0.865742
6384.67 1.22120
6385.68 1.85579
6386.18 2.37497
6386.69 3.14095
6387.19 4.32769
6387.69 6.27488
6388.20 9.66673
6388.70 15.7575
6389.20 25.2069
6389.70 31.5812
6390.20 25.3409
6390.70 15.8613
6391.10 10.6861
6391.50 7.44471
6391.91 5.39917
6392.31 4.06226
6393.12 2.51341
6393.92 1.69936
6394.73 1.22436
6395.53 0.924761
6397.15 0.583772
6398.76 0.405041
6400.37 0.300052
6403.59 0.188138
6406.82 0.132912
6410.04 0.101667
6416.49 0.0694120
6422.94 0.0538960
6429.38 0.0452131
6442.28 0.0362348
6468.07 0.0292158
6493.86 0.0262597
6597.02 0.0214768
6803.34 0.0169638
7215.99 0.0122235
7422.31 0.0112161
7628.64 0.0117179
7731.80 0.0135598
7783.38 0.0156033
7834.96 0.0193861
7886.54 0.0272022
7912.33 0.0345345
7938.12 0.0469070
7963.91 0.0700655
7976.81 0.0899508
7989.70 0.120685
7996.15 0.142661
8002.60 0.171377
8009.04 0.209719
8015.49 0.262099
8021.94 0.335435
8028.39 0.440376
8034.83 0.592434
8041.28 0.808881
8051.59 1.26131
8056.75 1.42502
8061.90 1.43171
8072.21 1.04645
8082.52 0.640249
8093.05 0.394660
8103.57 0.259708
8114.10 0.181957
8124.62 0.134224
8145.68 0.0820023
8166.73 0.0559163
8187.78 0.0411445
8208.83 0.0320006
8250.94 0.0217486
8293.04 0.0164233
8335.14 0.0132929
8419.35 0.00991538
8587.77 0.00726057
8671.97 0.00709460
8693.02 0.00749980
8714.08 0.00891278
8724.60 0.0109871
8729.87 0.0130848
8735.13 0.0169303
8740.39 0.0251321
8743.02 0.0332457
8745.65 0.0478780
8748.29 0.0784717
8750.92 0.160474
8752.23 0.266295
8752.89 0.365213
8753.55 0.532578
8754.21 0.850145
8754.54 1.12726
8754.86 1.56354
8755.19 2.30396
8755.52 3.69265
8755.69 4.87906
8755.85 6.66048
8756.02 9.43899
8756.18 13.8146
8756.60 28.5423
8756.81 23.3887
8757.02 14.7132
8757.19 9.95155
8757.35 6.95651
8757.52 5.04386
8757.69 3.79729
8758.02 2.34428
8758.35 1.57934
8758.69 1.13270
8759.02 0.850920
8759.69 0.530184
8760.35 0.362091
8761.02 0.263378
8761.68 0.200585
8762.35 0.158209
8763.68 0.106366
8765.01 0.0770771
8766.35 0.0589362
8767.68 0.0469364
8770.34 0.0325276
8773.00 0.0245440
8778.33 0.0164548
8783.66 0.0126390
8788.98 0.0105356
8799.64 0.00840345
8820.95 0.00681048
8842.26 0.00619652
8927.49 0.00539510
9097.95 0.00487584
9268.42 0.00472539
9353.65 0.00501199
9396.27 0.00617493
9417.58 0.0105734
9428.23 0.0274125
9430.90 0.0442498
9433.56 0.0901675
9434.89 0.150778
9436.22 0.308823
9436.89 0.505575
9437.56 0.975649
9437.89 1.50043
9438.22 2.57845
9438.39 3.59253
9438.55 5.27251
9438.72 8.25853
9438.89 13.7615
9439.04 22.0614
9439.20 27.5572
9439.36 22.0088
9439.52 13.7643
9439.64 9.32579
9439.77 6.52573
9439.89 4.74685
9440.02 3.58558
9440.27 2.21996
9440.51 1.50076
9441.01 0.811089
9441.51 0.506160
9442.51 0.251674
9443.51 0.151082
9445.50 0.0733334
9447.50 0.0444058
9451.49 0.0229229
9455.48 0.0151823
9471.45 0.00760963
9503.39 0.00591443
9535.32 0.00600591
9567.26 0.00673683
9599.20 0.00854140
9615.16 0.0103891
9631.13 0.0137822
9647.10 0.0210268
9655.08 0.0282024
9663.07 0.0411758
9667.06 0.0520070
9671.05 0.0683941
9675.04 0.0948992
9679.04 0.141937
9681.03 0.180483
9683.03 0.237743
9685.02 0.328065
9687.02 0.482619
9689.02 0.779757
9690.01 1.04290
9691.01 1.46349
9692.01 2.19254
9692.51 2.77229
9693.01 3.60327
9693.51 4.84127
9693.76 5.69465
9694.01 6.76455
9694.26 8.12906
9694.51 9.86569
9694.75 12.0826
9695.00 14.8756
9695.30 19.0239
9695.60 23.5982
9696.20 28.3731
9696.50 26.0869
9696.80 21.8175
9697.40 13.4874
9697.99 8.36678
9698.58 5.49284
9699.17 3.81992
9699.76 2.78801
9700.36 2.11553
9700.95 1.65621
9702.13 1.09054
9703.31 0.770577
9704.49 0.572931
9706.86 0.352299
9709.22 0.238718
9711.58 0.172762
9713.95 0.131130
9716.31 0.103191
9721.04 0.0692003
9725.77 0.0501117
9730.50 0.0383354
9735.23 0.0305642
9744.68 0.0212713
9754.14 0.0161413
9773.05 0.0109715
9791.96 0.00855461
9810.88 0.00723965
9848.70 0.00594747
9924.35 0.00511157
10000.0 0.00497165
10170.0 0.00564367
10255.0 0.00656421
10340.0 0.00828469
10424.9 0.0118145
10467.4 0.0150955
10509.9 0.0205800
10552.4 0.0307203
10573.7 0.0393273
10594.9 0.0524827
10616.2 0.0739099
10637.4 0.111654
10648.0 0.141864
10658.7 0.184845
10669.3 0.247236
10679.9 0.337857
10713.0 0.700707
10721.3 0.671991
10729.6 0.578916
10746.1 0.365063
10760.7 0.237473
10775.2 0.160871
10789.8 0.114415
10804.3 0.0850000
10833.5 0.0520099
10862.6 0.0352102
10891.7 0.0256061
10920.8 0.0196325
10979.1 0.0129211
11037.3 0.00944104
11095.5 0.00740849
11212.0 0.00524770
11328.5 0.00418482
11444.9 0.00359833
11561.4 0.00328920
11619.6 0.00325891
11648.8 0.00339483
11663.3 0.00393624
11670.6 0.00601661
11674.2 0.0139876
11676.1 0.0434794
11677.0 0.144579
11677.4 0.436336
11677.7 1.11227
11677.8 2.10986
11677.9 5.21010
11677.9 8.37762
11678.0 10.4498
11678.1 8.37783
11678.1 5.21028
11678.2 2.41783
11678.3 1.37694
11678.5 0.577811
11678.9 0.195920
11679.6 0.0601604
11681.1 0.0186595
11684.2 0.00729018
11690.2 0.00431623
11702.2 0.00359383
11726.3 0.00354414
11774.5 0.00428483
11798.6 0.00543793
11810.6 0.00660667
11822.7 0.00874540
11834.7 0.0133000
11840.7 0.0177885
11846.8 0.0258579
11849.8 0.0325819
11852.8 0.0426685
11855.8 0.0588518
11858.8 0.0872332
11861.8 0.143955
11863.3 0.196557
11864.8 0.283956
11866.3 0.447367
11867.1 0.586017
11867.8 0.799065
11868.6 1.15427
11869.4 1.78038
11870.1 3.00990
11870.5 4.08516
11870.9 5.60884
11871.4 8.99935
11872.0 11.2054
11872.6 8.93615
11873.2 5.60831
11873.5 4.05096
11873.9 3.00986
11874.7 1.78051
11875.4 1.15445
11876.2 0.802816
11876.9 0.588450
11877.7 0.449040
11879.2 0.285626
11880.7 0.197550
11882.2 0.144873
11885.1 0.0879373
11888.1 0.0593118
11891.1 0.0430300
11894.1 0.0328392
11897.1 0.0260822
11903.1 0.0179176
11909.1 0.0133700
11921.1 0.00874574
11933.1 0.00656058
11945.0 0.00535896
11969.0 0.00415994
12016.9 0.00347165
12028.9 0.00358510
12040.9 0.00413472
12046.9 0.00498536
12052.9 0.00746432
12055.9 0.0109292
12058.9 0.0206206
12060.4 0.0338870
12061.9 0.0703381
12062.6 0.118844
12063.4 0.246889
12063.7 0.411910
12064.1 0.804139
12064.3 1.26573
12064.5 2.18236
12064.6 3.17265
12064.7 4.72163
12064.8 7.55161
12064.8 12.9670
12064.9 20.7545
12065.0 26.1172
12065.1 21.0785
12065.2 13.2209
12065.2 8.13875
12065.3 5.56178
12065.5 2.96487
12065.6 1.80897
12065.7 1.21045
12066.0 0.634902
12066.3 0.395344
12066.9 0.193869
12067.4 0.115331
12068.6 0.0551834
12069.7 0.0329597
12072.0 0.0165190
12074.3 0.0106018
12078.8 0.00629047
12083.4 0.00475277
12092.5 0.00362294
12101.6 0.00320844
12138.1 0.00274695
12211.0 0.00255250
12356.8 0.00246437
12648.5 0.00268275
12794.3 0.00312051
12940.2 0.00429135
13013.1 0.00569819
13049.5 0.00692544
13086.0 0.00885974
13122.5 0.0121687
13158.9 0.0185437
13177.1 0.0242292
13195.4 0.0334679
13213.6 0.0505654
13222.7 0.0684614
13227.3 0.0964949
13229.6 0.173201
13230.7 0.416897
13231.0 0.631491
13231.3 1.10292
13231.5 2.51853
13231.7 4.50682
13231.8 6.38449
13231.8 9.45536
13231.9 15.0261
13232.0 18.8553
13232.1 15.0206
13232.2 9.45167
13232.3 5.75575
13232.4 3.60076
13232.6 1.79998
13232.8 1.05613
13233.0 0.718090
13233.3 0.408857
13233.7 0.281451
13235.3 0.144788
13238.4 0.114387
13244.6 0.129553
13250.8 0.165057
13257.0 0.221258
13263.3 0.312851
13269.5 0.472216
13272.6 0.598254
13275.7 0.775731
13278.8 1.03001
13281.9 1.39301
13292.0 2.93164
13294.5 2.82215
13297.1 2.43648
13302.1 1.53460
13307.6 0.898895
13313.2 0.562423
13318.7 0.377808
13324.2 0.269181
13329.7 0.200645
13335.3 0.155125
13346.3 0.100515
13357.4 0.0704623
13368.4 0.0522462
13390.5 0.0322766
13412.6 0.0221716
13434.7 0.0163771
13478.9 0.0103446
13523.1 0.00746592
13567.3 0.00597261
13611.5 0.00570702
13633.6 0.00823472
13644.7 0.0193018
13647.5 0.0306134
13650.2 0.0617212
13651.6 0.103226
13653.0 0.213175
13653.7 0.352807
13654.4 0.696337
13654.7 1.10196
13655.0 1.95091
13655.2 2.84694
13655.4 4.35923
13655.6 7.28504
13655.7 9.94523
13655.7 13.3956
13655.9 21.7409
13656.0 26.8373
13656.1 21.7432
13656.3 13.3974
13656.4 8.94087
13656.5 6.01094
13656.6 4.24243
13656.7 3.12624
13657.0 1.87797
13657.2 1.24393
13657.7 0.657252
13658.2 0.405098
13659.1 0.198860
13660.1 0.119203
13662.0 0.0574720
13663.9 0.0347995
13671.6 0.0118718
13686.9 0.00577690
13717.5 0.00400469
13778.8 0.00325503
13901.3 0.00275517
14146.3 0.00248859
14391.4 0.00258557
14636.4 0.00298524
14881.4 0.00393561
15003.9 0.00487028
15126.4 0.00651235
15249.0 0.00980077
15310.2 0.0128549
15371.5 0.0180123
15432.7 0.0277674
15463.4 0.0362782
15494.0 0.0496907
15509.3 0.0594784
15524.6 0.0725053
15539.9 0.0903377
15555.3 0.115482
15570.6 0.152254
15585.9 0.208034
15601.2 0.295650
15616.5 0.434609
15635.8 0.696442
15655.0 0.886215
15664.6 0.843907
15674.3 0.723769
15693.5 0.455677
15711.7 0.288104
15729.9 0.191106
15748.0 0.133924
15766.2 0.0984566
15802.6 0.0594721
15838.9 0.0400190
15875.3 0.0290724
15911.7 0.0223683
15984.4 0.0150389
16057.1 0.0114747
16129.8 0.00964646
16275.3 0.00858825
16420.7 0.00995446
16493.4 0.0118065
16566.1 0.0150428
16638.9 0.0208568
16675.2 0.0255193
16711.6 0.0322014
16747.9 0.0421248
16784.3 0.0574722
16820.7 0.0821734
16857.0 0.122641
16943.0 0.257354
16964.5 0.249241
16986.0 0.216393
17029.0 0.137415
17080.3 0.0775280
17131.6 0.0474730
17182.9 0.0316455
17234.2 0.0225774
17285.5 0.0169764
17336.8 0.0133013
17439.3 0.00895353
17541.9 0.00658797
17644.5 0.00516452
17849.7 0.00361775
18054.8 0.00285287
18260.0 0.00244391
18465.2 0.00228879
18567.8 0.00256355
18593.4 0.00291036
18619.1 0.00392024
18631.9 0.00532919
18644.7 0.00927992
18651.1 0.0146669
18657.5 0.0294224
18660.7 0.0490288
18663.9 0.100347
18665.5 0.165318
18667.1 0.322072
18667.9 0.500261
18668.7 0.875759
18669.1 1.23839
18669.5 1.86470
18669.9 3.04490
18670.1 4.02737
18670.3 5.43241
18671.0 11.7538
18671.2 11.4065
18671.3 9.93836
18671.7 6.26877
18671.9 4.29201
18672.2 3.01835
18672.4 2.20052
18672.7 1.67797
18673.1 1.04643
18673.6 0.709270
18674.1 0.510660
18674.6 0.384608
18675.6 0.240331
18676.6 0.163749
18677.6 0.119191
18679.5 0.0715386
18681.5 0.0478796
18683.5 0.0345700
18687.4 0.0208151
18691.3 0.0142401
18695.2 0.0105959
18703.1 0.00691026
18711.0 0.00517264
18718.8 0.00421936
18734.5 0.00326012
18765.9 0.00256358
18797.4 0.00231514
18923.1 0.00208771
19048.7 0.00221499
19080.2 0.00239235
19111.6 0.00290295
19127.3 0.00361227
19135.2 0.00432010
19143.0 0.00560867
19150.9 0.00835303
19154.8 0.0110678
19158.7 0.0159554
19162.7 0.0262163
19166.6 0.0538856
19168.6 0.0899815
19170.5 0.181471
19171.5 0.291867
19172.5 0.544202
19173.0 0.811557
19173.5 1.32603
19173.7 1.78732
19173.9 2.47477
19174.2 3.63662
19174.4 5.47698
19175.0 11.4780
19175.2 10.9859
19175.3 9.47145
19175.6 6.01366
19175.9 3.59642
19176.2 2.31492
19176.5 1.56594
19176.8 1.13121
19177.1 0.843872
19177.3 0.657298
19177.9 0.426859
19178.5 0.298852
19179.1 0.220773
19180.3 0.135170
19181.5 0.0911352
19182.6 0.0659486
19185.0 0.0393951
19187.3 0.0264556
19189.7 0.0192508
19194.4 0.0118924
19199.1 0.00839723
19203.8 0.00647514
19213.2 0.00453759
19222.6 0.00363142
19232.0 0.00313672
19250.9 0.00264450
19288.5 0.00229900
19326.1 0.00218832
19476.7 0.00216985
19627.2 0.00248623
19664.9 0.00277066
19702.5 0.00353258
19740.2 0.00738607
19749.6 0.0111924
19759.0 0.0214651
19763.7 0.0348686
19766.0 0.0474892
19768.4 0.0691004
19770.7 0.110732
19771.9 0.147912
19773.1 0.207092
19774.3 0.311479
19775.4 0.515261
19776.0 0.699871
19776.6 0.996215
19777.2 1.50115
19777.8 2.38207
19779.0 5.55260
19779.3 5.60341
19779.6 4.99725
19780.2 3.20606
19780.6 2.23138
19781.1 1.58439
19781.5 1.16171
19781.9 0.879548
19782.8 0.547048
19783.7 0.370023
19784.5 0.266073
19785.4 0.200287
19787.1 0.125540
19788.8 0.0860106
19790.5 0.0627948
19794.0 0.0381147
19797.4 0.0259092
19800.8 0.0190357
19807.7 0.0119518
19814.6 0.00857203
19821.4 0.00670297
19835.2 0.00481996
19848.9 0.00394106
19862.6 0.00346539
19890.1 0.00300323
20000.0 0.00265380
20221.7 0.00288343
20443.4 0.00338076
20665.1 0.00416891
20775.9 0.00476100
20831.3 0.00527775
20859.1 0.00621238
20872.9 0.00927117
20879.8 0.0207268
20883.3 0.0628030
20885.0 0.205914
20885.9 0.628904
20886.3 1.56831
20886.6 3.05651
20886.7 4.59918
20886.8 7.02726
20886.9 11.1775
20887.0 14.0370
20887.1 11.1783
20887.2 7.02785
20887.3 4.59957
20887.5 3.05676
20887.7 1.61070
20888.1 0.639942
20889.0 0.210037
20890.7 0.0638044
20894.1 0.0210943
20901.0 0.00954233
20914.7 0.00662903
20942.2 0.00607575
20997.1 0.00636154
21106.9 0.00751273
21216.8 0.00921957
21271.7 0.0107404
21299.1 0.0133528
21312.9 0.0215386
21319.7 0.0509989
21323.2 0.152022
21324.0 0.242362
21324.9 0.456777
21325.3 0.694656
21325.8 1.18070
21326.0 1.64826
21326.2 2.39224
21326.4 3.70974
21326.6 6.32798
21327.0 14.3382
21327.1 14.2703
21327.2 12.5395
21327.4 8.05452
21327.5 5.62365
21327.7 4.09456
21327.9 2.35988
21328.2 1.48062
21328.5 1.02097
21329.0 0.561387
21329.5 0.357900
21330.6 0.182424
21331.6 0.113255
21333.7 0.0592249
21335.8 0.0391543
21340.0 0.0241904
21344.3 0.0188629
21352.7 0.0151075
21361.1 0.0139144
21394.8 0.0134615
