Ni-64(n,tot) ENDF/B-VII.1
Energy(eV) XS(b)
1.00000E-05 74.7215
1.25000E-05 66.8626
1.50000E-05 61.0614
2.00000E-05 52.9184
2.75000E-05 45.1703
3.50000E-05 40.0711
4.25000E-05 36.3899
5.00000E-05 33.5718
6.25000E-05 30.0572
7.50000E-05 27.4628
0.000100000 23.8211
0.000125000 21.3359
0.000150000 19.5014
0.000200000 16.9264
0.000275000 14.4762
0.000350000 12.8637
0.000425000 11.6996
0.000500000 10.8085
0.000625000 9.69704
0.000750000 8.87663
0.00100000 7.72503
0.00125000 6.93915
0.00150000 6.35903
0.00200000 5.54472
0.00275000 4.76992
0.00350000 4.26000
0.00425000 3.89188
0.00500000 3.61007
0.00625000 3.25861
0.00750000 2.99917
0.0100000 2.63501
0.0125000 2.38649
0.0150000 2.20304
0.0200000 1.94553
0.0253000 1.76095
0.0314750 1.60786
0.0376500 1.49418
0.0500000 1.33375
0.0625000 1.22261
0.0750000 1.14057
0.100000 1.02541
0.125000 0.946830
0.150000 0.888822
0.200000 0.807401
0.275000 0.729933
0.350000 0.678953
0.500000 0.613985
0.750000 0.552935
1.00000 0.516557
1.50000 0.473438
2.00000 0.447764
2.75000 0.423376
3.50000 0.407365
5.00000 0.387037
7.50000 0.368091
10.0000 0.356946
15.0000 0.344024
20.0000 0.336619
27.5000 0.329976
35.0000 0.325982
50.0000 0.321697
75.0000 0.319297
100.000 0.319391
150.000 0.322631
200.000 0.327740
275.000 0.337061
350.000 0.347525
500.000 0.370573
750.000 0.413461
999.999 0.461126
1000.00 0.461126
1000.01 0.461128
1000.02 0.461129
1000.03 0.461132
1000.06 0.461138
1000.12 0.461151
1000.25 0.461175
1000.49 0.461224
1000.98 0.461322
1001.96 0.461517
1003.91 0.461908
1007.81 0.462691
1015.63 0.464260
1031.25 0.467412
1062.50 0.473771
1125.00 0.486711
1250.00 0.513487
1500.00 0.570745
2000.00 0.701305
2750.00 0.944057
3500.00 1.25742
4000.00 1.51607
4000.00 1.51607
4000.01 1.51607
4000.02 1.51608
4000.03 1.51608
4000.06 1.51610
4000.12 1.51614
4000.25 1.51620
4000.49 1.51634
4000.98 1.51662
4001.96 1.51717
4003.91 1.51827
4007.81 1.52048
4015.63 1.52490
4031.25 1.53378
4062.50 1.55168
4125.00 1.58809
4250.00 1.66334
4500.00 1.82424
5000.00 2.19281
6129.01 3.32686
7258.03 5.10545
8387.04 8.03584
8951.54 10.2433
9092.67 10.9169
9233.80 11.6738
9304.36 12.1165
9339.64 12.3771
9374.92 12.6972
9410.21 13.1598
9427.85 13.5199
9445.49 14.0867
9454.31 14.5231
9463.13 15.1525
9471.95 16.1281
9480.77 17.7900
9489.59 21.0257
9494.00 23.9552
9498.41 28.7694
9502.82 37.4900
9505.03 44.7529
9507.23 55.6560
9509.44 72.9558
9511.64 102.310
9513.85 155.949
9516.05 258.531
9518.03 406.851
9520.00 506.211
9521.98 407.441
9523.95 259.445
9525.81 168.912
9527.67 116.543
9529.53 85.5643
9531.39 66.2784
9535.11 44.9516
9538.83 34.2286
9542.55 28.1465
9546.27 24.3886
9553.70 20.2016
9561.14 18.0613
9568.58 16.8349
9576.02 16.0762
9583.46 15.5814
9598.33 15.0152
9613.21 14.7381
9642.96 14.5485
9672.72 14.5626
9702.47 14.6620
9761.98 14.9724
9880.99 15.7714
10000.0 16.6861
10356.1 19.9465
10712.3 24.0987
11424.5 36.3775
12136.8 57.7595
12849.0 95.6682
13574.5 153.822
14300.0 185.670
14549.7 177.321
14674.5 169.823
14736.9 165.464
14768.1 163.174
14775.9 162.600
14783.7 162.047
14787.6 161.800
14791.5 161.638
14793.5 161.665
14794.5 161.755
14795.4 161.959
14796.4 162.414
14796.9 162.840
14797.4 163.513
14797.9 164.696
14798.4 166.928
14798.6 168.870
14798.9 171.665
14799.1 175.932
14799.3 182.456
14799.7 195.544
14800.0 204.325
14800.3 195.584
14800.7 182.468
14800.9 175.902
14801.1 171.734
14801.4 168.942
14801.6 167.025
14802.1 164.644
14802.5 163.350
14803.0 162.541
14803.5 162.019
14804.4 161.375
14805.3 160.998
14806.2 160.744
14808.1 160.405
14811.8 159.962
14815.5 159.615
14822.9 158.989
14830.4 158.389
14860.1 156.008
14919.5 151.157
15038.3 141.178
15275.8 121.254
15751.0 86.8113
16282.1 59.6383
16813.3 41.8583
17344.4 30.1352
17875.5 22.1854
18937.8 12.6115
20000.0 7.42192
21171.1 4.19689
22342.3 2.45935
22927.8 1.98882
23513.4 1.74995
24098.9 1.73897
24684.5 1.96678
25270.1 2.45871
25855.6 3.25546
26441.2 4.41520
27026.8 6.01627
28197.9 10.9740
29369.0 19.2330
30608.5 32.9540
31228.3 41.9042
31538.1 46.8069
31693.1 49.3388
31731.8 49.9823
31770.5 50.6396
31789.9 50.9860
31809.3 51.3808
31819.0 51.6430
31823.8 51.8221
31828.6 52.0769
31833.5 52.5075
31835.9 52.8712
31838.3 53.4514
31840.7 54.4881
31842.0 55.3520
31843.2 56.6582
31844.4 58.7600
31845.6 62.4108
31846.8 69.3314
31847.4 75.1504
31848.0 83.2656
31849.0 102.316
31850.0 115.194
31851.0 102.758
31852.0 83.8455
31853.0 71.9502
31853.9 65.2137
31854.9 61.2553
31855.9 58.8037
31857.8 56.1137
31859.7 54.7775
31861.6 54.0293
31863.5 53.5803
31867.4 53.1043
31871.2 52.8877
31875.1 52.7879
31882.8 52.7412
31890.4 52.7826
31898.1 52.8613
31913.5 53.0659
31944.3 53.5390
31975.0 54.0370
32098.0 56.0745
32344.0 60.1554
32836.0 67.9721
33820.0 80.0279
34932.8 84.6149
36045.5 80.4703
38271.0 62.7477
39737.1 52.0415
41203.3 43.6382
42669.4 37.2201
44135.5 32.2995
47067.8 25.4411
50000.0 21.0003
53199.2 17.7081
56398.3 15.3793
59597.5 13.6519
61197.1 12.9456
61996.9 12.6229
62396.8 12.4679
62596.7 12.3938
62646.7 12.3785
62696.7 12.3727
62721.7 12.3838
62746.7 12.4358
62759.2 12.5170
62765.4 12.5985
62771.7 12.7435
62777.9 13.0334
62781.0 13.2980
62784.2 13.7291
62787.3 14.4997
62790.4 16.0421
62792.0 17.4443
62793.5 19.7013
62795.1 23.5217
62796.7 30.1298
62798.3 41.1578
62800.0 48.7058
62801.7 41.6979
62803.4 30.8923
62804.5 25.6954
62805.6 22.1676
62806.8 19.7784
62807.9 18.1380
62810.2 16.1059
62812.4 14.9687
62814.7 14.2754
62817.0 13.8234
62821.5 13.2905
62826.1 12.9999
62830.6 12.8237
62839.7 12.6284
62848.8 12.5266
62857.8 12.4659
62876.0 12.3976
62912.3 12.3352
62948.7 12.3025
63021.3 12.2604
63094.0 12.2276
63239.3 12.1700
63384.6 12.1161
63675.2 12.0124
63965.8 11.9119
65128.2 11.5316
67452.9 10.8535
72102.5 9.74810
81401.7 8.17122
90700.8 7.05694
95350.4 6.59186
99999.9 6.15832
100000 6.15830
103223 5.86471
104028 5.79175
104431 5.75608
104834 5.72234
105237 5.69463
105438 5.68710
105639 5.69074
105841 5.72311
105942 5.76577
106042 5.85044
106143 6.03215
106193 6.20387
106244 6.48941
106294 7.00661
106344 8.05306
106370 9.01019
106395 10.5521
106420 13.1571
106445 17.6181
106473 25.1841
106500 30.5427
106528 25.9030
106556 18.4780
106578 14.5290
106599 11.9823
106621 10.3316
106642 9.23172
106685 7.91695
106729 7.20185
106772 6.77114
106815 6.49255
106901 6.16292
106987 5.97987
107074 5.86571
107246 5.73158
107418 5.65384
107591 5.60106
107936 5.52837
108281 5.47486
108626 5.42962
109315 5.34970
110695 5.20289
112075 5.05750
114834 4.74804
117593 4.38723
120352 3.92487
121732 3.62377
123112 3.24015
124491 2.71688
125181 2.37018
125871 1.93697
126561 1.38565
126906 1.05772
127250 0.700315
127595 0.343667
127768 0.192337
127854 0.133340
127940 0.0918735
128027 0.0748295
128113 0.0914551
128199 0.153970
128285 0.278644
128371 0.487229
128458 0.807237
128544 1.27460
128630 1.93352
128714 2.80679
128798 3.95875
128965 7.25773
129300 16.5125
129468 19.8213
129635 20.9313
129970 19.0166
130343 15.7114
130717 13.1964
131090 11.4425
131463 10.1966
131837 9.27866
132210 8.57752
132956 7.57644
133703 6.88911
134449 6.37908
135943 5.64446
137436 5.10333
138929 4.65081
139675 4.44175
140422 4.24483
140795 4.16048
140982 4.12997
141169 4.11931
141355 4.15751
141449 4.21946
141542 4.34533
141635 4.60762
141682 4.84258
141728 5.20875
141775 5.81033
141822 6.85613
141868 8.81153
141915 12.6057
141958 18.3408
142000 22.5801
142043 19.3110
142086 13.7870
142112 11.3343
142138 9.57725
142190 7.42688
142243 6.25743
142295 5.56586
142347 5.12226
142399 4.82029
142503 4.44064
142607 4.21270
142712 4.05909
142920 3.85740
143129 3.72036
143337 3.61233
143754 3.43378
145423 2.81041
146257 2.47213
147091 2.07997
147508 1.84466
147716 1.70823
147925 1.55009
148134 1.35402
148238 1.23131
148342 1.08085
148446 0.885534
148498 0.762913
148551 0.618487
148655 0.307626
148681 0.301203
148694 0.349319
148707 0.465363
148720 0.701629
148733 1.14457
148746 1.95566
148759 3.40506
148769 5.24740
148780 7.79663
148800 13.4384
148810 14.6499
148821 14.2982
148841 11.5175
148858 9.33932
148874 7.72034
148890 6.54621
148907 5.69501
148940 4.56606
148973 3.87000
149006 3.40340
149038 3.06980
149104 2.62365
149170 2.33431
149236 2.12762
149367 1.84158
149499 1.64119
149630 1.48400
149893 1.23409
150419 0.844538
150946 0.528447
151472 0.291775
151735 0.220983
151998 0.199317
152261 0.246711
152524 0.390527
152787 0.667630
153050 1.12545
153294 1.76220
153538 2.65647
154025 5.40409
155000 13.9635
155488 17.4357
155975 18.9767
156950 17.9949
157722 16.0727
158495 14.2860
159267 12.8058
160040 11.5853
160812 10.5271
161584 9.48401
161971 8.86600
162164 8.48522
162357 8.00860
162550 7.35224
162646 6.90222
162743 6.31242
162840 5.49279
162888 4.94995
162936 4.28202
162984 3.45437
163033 2.47436
163057 1.97561
163081 1.58362
163105 1.53060
163117 1.78152
163129 2.35073
163138 3.06595
163147 4.11088
163165 7.44368
163200 18.6148
163218 23.5630
163236 26.0790
163271 25.6149
163299 23.5136
163327 21.4639
163354 19.7549
163382 18.3826
163437 16.3889
163493 15.0501
163548 14.0974
163604 13.3894
163715 12.4035
163826 11.7457
163936 11.2703
164158 10.6160
164380 10.1722
164602 9.84041
165045 9.35534
165932 8.70957
166819 8.25072
168593 7.56469
170368 7.01378
172142 6.49141
173029 6.20648
173916 5.87282
174803 5.43471
175246 5.13961
175690 4.75098
176134 4.19811
176355 3.81780
176577 3.32694
176799 2.67266
177021 1.78804
177131 1.25364
177242 0.712049
177298 0.490753
177353 0.371137
177381 0.379360
177409 0.457233
177436 0.629993
177464 0.929666
177494 1.43242
177523 2.17792
177553 3.22203
177582 4.60926
177700 12.9089
177759 16.6505
177818 18.6218
177936 18.4286
178041 16.7137
178147 15.0656
178252 13.7387
178357 12.7063
178568 11.2545
178779 10.3050
178990 9.64225
179200 9.15429
179622 8.48235
180043 8.03742
180464 7.71718
181307 7.27729
182150 6.97909
182993 6.75571
184678 6.42685
186364 6.18045
188049 5.97626
188892 5.88342
189735 5.79572
190156 5.75686
190367 5.74191
190577 5.73530
190788 5.75103
190893 5.77989
190999 5.84193
191104 5.97935
191157 6.10860
191209 6.31905
191262 6.68423
191315 7.36737
191367 8.78191
191394 10.0436
191420 11.9343
191460 16.2127
191500 19.5106
191541 17.2713
191581 13.2391
191608 11.2869
191635 9.92675
191688 8.30715
191742 7.45604
191795 6.96304
191848 6.65157
191902 6.44190
192009 6.18335
192116 6.03260
192223 5.93468
192437 5.81399
192650 5.74012
192864 5.68787
193292 5.61329
193720 5.55716
194148 5.50965
195003 5.42694
196714 5.28122
198425 5.14355
200136 5.00358
201847 4.84735
202703 4.75125
203130 4.69241
203558 4.61940
203986 4.51854
204200 4.44769
204414 4.35038
204521 4.28506
204627 4.20186
204734 4.09074
204841 3.93321
204895 3.82595
204948 3.68888
205002 3.50716
205055 3.25504
205109 2.88077
205135 2.61862
205162 2.27792
205189 1.82258
205216 1.21678
205242 0.506615
205256 0.296912
205262 0.358578
205269 0.650295
205277 1.50137
205285 3.16534
205292 5.82605
205300 8.97123
205308 11.6486
205316 13.0738
205331 13.0344
205349 11.4993
205368 10.1493
205386 9.16331
205404 8.44885
205422 7.91555
205440 7.51022
205477 6.93588
205513 6.55017
205550 6.27552
205623 5.90945
205696 5.67672
205768 5.51520
205841 5.39606
205914 5.30426
206060 5.17058
206206 5.07679
206497 4.95011
206789 4.86461
207080 4.79995
207663 4.70179
208829 4.55611
209995 4.43275
211161 4.31403
212327 4.19189
212911 4.12709
213494 4.05791
214077 3.98805
214222 3.98006
214295 3.98467
214368 4.00454
214441 4.06261
214477 4.12519
214514 4.23674
214550 4.45108
214587 4.90631
214605 5.33435
214623 6.03693
214641 7.24570
214660 9.36948
214680 13.1920
214700 16.1952
214720 14.3034
214741 10.7809
214760 8.41219
214780 7.01767
214800 6.17542
214819 5.63950
214839 5.28011
214859 5.02780
214898 4.70485
214938 4.51194
214977 4.38597
215056 4.23333
215135 4.14438
215213 4.08538
215371 4.00910
215529 3.95834
215686 3.91912
216001 3.85609
216632 3.75044
217262 3.64834
217893 3.53849
218523 3.40750
218838 3.32272
218996 3.26951
219154 3.20243
219311 3.10868
219390 3.04253
219469 2.95176
219548 2.81432
219587 2.71281
219626 2.57100
219666 2.35701
219705 1.99565
219725 1.70516
219745 1.28061
219764 0.687165
219774 0.450503
219779 0.492199
219784 0.832238
219788 1.53399
219792 2.83467
219800 7.07738
219804 8.90766
219808 9.81152
219816 9.55128
219830 7.78111
219844 6.57478
219857 5.83337
219871 5.35017
219885 5.01276
219898 4.76832
219926 4.43624
219953 4.22074
219981 4.07027
220036 3.87194
220090 3.74531
220145 3.65616
220255 3.53560
220365 3.45406
220475 3.39235
220694 3.29845
221133 3.15816
221572 3.03834
222450 2.80552
223328 2.55385
224205 2.26421
225083 1.91275
225522 1.69786
225742 1.57363
225961 1.43155
226181 1.26033
226290 1.15702
226400 1.03504
226510 0.885672
226620 0.701146
226675 0.603142
226729 0.540472
226757 0.562590
226784 0.685672
226798 0.821484
226812 1.04274
226825 1.39376
226839 1.93728
226854 2.86508
226870 4.18771
226900 7.25224
226915 8.00139
226931 7.92357
226961 6.58447
226985 5.49508
227009 4.65725
227033 4.03766
227056 3.57610
227104 2.94933
227152 2.55146
227199 2.27607
227247 2.07356
227342 1.78940
227438 1.59272
227533 1.44219
227723 1.21264
228104 0.875822
228486 0.608290
228867 0.389457
229248 0.236860
229438 0.198458
229629 0.196339
229820 0.241841
230010 0.349110
230246 0.594078
230483 0.998978
230719 1.60540
230955 2.44869
231428 4.87589
231900 7.90171
232373 10.5495
232845 12.0765
233790 12.3003
234778 11.1404
235765 9.98936
236259 9.51513
236753 9.13881
236999 9.02281
237246 9.04516
237370 9.19238
237493 9.57791
237555 9.95574
237617 10.5692
237678 11.5842
237740 13.2616
237820 16.6925
237900 19.4472
237981 17.7534
238061 14.5139
238154 12.0186
238248 10.6514
238341 9.86193
238434 9.36556
238621 8.78154
238807 8.44252
238994 8.21076
239180 8.03468
239553 7.76817
240300 7.38840
241046 7.10030
242538 6.65597
244031 6.31234
247015 5.78712
250000 5.37231
250000 5.37229
252808 5.01550
253510 4.92371
254211 4.82857
254562 4.78181
254913 4.74810
255089 4.75514
255176 4.77826
255264 4.83239
255352 4.95539
255396 5.07035
255440 5.25376
255484 5.56061
255527 6.10006
255571 7.11207
255615 9.06944
255658 12.3068
255700 14.9935
255743 13.5678
255786 10.6279
255836 8.33939
255886 7.09762
255936 6.39418
255986 5.96459
256036 5.68220
256086 5.48636
256187 5.23548
256287 5.08306
256387 4.98036
256587 4.84788
256787 4.76190
256987 4.69780
257388 4.59983
257788 4.51986
258189 4.44735
258990 4.30922
260591 4.02052
262193 3.67370
263795 3.21170
264596 2.90749
265397 2.52680
266197 2.03664
266998 1.39752
267399 1.01872
267799 0.624871
268200 0.297463
268400 0.221386
268500 0.225806
268600 0.270375
268738 0.417854
268875 0.696759
269013 1.14524
269150 1.79885
269425 3.77637
269700 6.37213
269975 8.77384
270250 10.2878
270800 10.8408
271336 10.1121
271871 9.26611
272407 8.54896
272943 7.97373
273478 7.51452
274014 7.15856
274282 7.03559
274416 7.00292
274549 7.00930
274683 7.09474
274817 7.36520
274884 7.65380
274951 8.15048
275018 9.03028
275085 10.5945
275163 13.5905
275240 16.1286
275318 14.8467
275396 12.1113
275458 10.5024
275520 9.42933
275582 8.70967
275644 8.21246
275768 7.58683
275892 7.21606
276015 6.96979
276139 6.79179
276387 6.54325
276635 6.36793
276883 6.22988
277378 6.01055
278369 5.66846
279360 5.36637
280351 5.04598
280847 4.85557
281342 4.62005
281838 4.29607
282085 4.07219
282333 3.77453
282581 3.35052
282705 3.06087
282829 2.69136
282952 2.20754
283076 1.56871
283200 0.786428
283262 0.444237
283293 0.353333
283324 0.377715
283346 0.505475
283368 0.764331
283390 1.19408
283412 1.83277
283456 3.80535
283500 6.44850
283588 10.5680
283676 11.2809
283778 10.4807
283880 9.56299
283981 8.83088
284083 8.27429
284185 7.84616
284287 7.51033
284490 7.01934
284693 6.67750
284897 6.42457
285304 6.07042
285711 5.82784
286118 5.64570
286932 5.37650
287745 5.17088
288559 4.99223
289373 4.81589
289577 4.77073
289780 4.73469
289882 4.73617
289984 4.79832
290035 4.90339
290085 5.16144
290111 5.42714
290136 5.88931
290162 6.73820
290187 8.34162
290214 11.2090
290240 13.7159
290267 12.6321
290293 10.1146
290310 8.89304
290326 7.99724
290359 6.87299
290392 6.24607
290425 5.86581
290458 5.61735
290491 5.44488
290557 5.22392
290623 5.08914
290689 4.99791
290821 4.87968
290953 4.80264
291085 4.74524
291349 4.65819
291613 4.58818
291877 4.52573
292405 4.40931
293460 4.17411
294516 3.89952
295572 3.53656
296100 3.29435
296628 2.98279
297155 2.55957
297419 2.28408
297683 1.94846
297947 1.53629
298211 1.03982
298475 0.508762
298607 0.306160
298673 0.256052
298739 0.265738
298802 0.355519
298864 0.553665
298927 0.893922
298990 1.40883
299115 3.02627
299240 5.21924
299491 8.68806
299741 9.32234
300030 8.67135
300319 7.89925
300608 7.27109
300897 6.78261
301186 6.39773
301475 6.08647
302053 5.60670
302631 5.24025
303209 4.93456
304365 4.39424
305521 3.82785
306099 3.48982
306677 3.08076
307255 2.55938
307833 1.86720
308122 1.44033
308411 0.969639
308700 0.520639
308845 0.363164
308917 0.322190
308989 0.319258
309083 0.393148
309177 0.586255
309271 0.937211
309365 1.48342
309552 3.24474
309740 5.68638
310116 9.66603
310491 10.5044
310826 10.0544
311161 9.41222
311496 8.82528
311832 8.33517
312502 7.60161
313172 7.09222
313842 6.72006
314512 6.43527
315853 6.02255
317193 5.72998
318534 5.50356
319204 5.40564
319874 5.31390
320544 5.22450
320879 5.18523
320963 5.18491
321047 5.21183
321089 5.26161
321131 5.39918
321152 5.56084
321173 5.88972
321183 6.18949
321194 6.66022
321204 7.44300
321215 8.73567
321227 11.2339
321240 13.1708
321253 11.9069
321266 9.60039
321278 8.08779
321290 7.18203
321302 6.63060
321314 6.28025
321338 5.87490
321362 5.66125
321410 5.44993
321459 5.34938
321555 5.25328
321652 5.20508
321845 5.15088
322038 5.11552
322425 5.06167
322811 5.01594
323584 4.93318
324356 4.85660
325129 4.78807
325515 4.76129
325902 4.74770
326288 4.76697
326481 4.80484
326674 4.88270
326868 5.03931
327061 5.36511
327254 6.09509
327351 6.78041
327447 7.84356
327594 10.3763
327740 12.5843
327887 11.6063
328033 9.36481
328128 8.23784
328223 7.42235
328413 6.41153
328603 5.85107
328793 5.50908
328983 5.28157
329173 5.11937
329553 4.89937
329933 4.74972
330313 4.63307
331074 4.43637
331834 4.23297
332214 4.10839
332594 3.94942
332974 3.72311
333164 3.56281
333354 3.34558
333544 3.02904
333639 2.80827
333734 2.52055
333829 2.13288
333924 1.59602
333972 1.25588
334019 0.872543
334067 0.491719
334090 0.344655
334114 0.277759
334146 0.431518
334161 0.677527
334177 1.07613
334193 1.65664
334209 2.41560
334240 4.33667
334303 7.61271
334366 8.43477
334419 8.19264
334472 7.76801
334525 7.35477
334578 6.99870
334684 6.44956
334790 6.05777
334896 5.76315
335002 5.53183
335056 5.43972
335109 5.38949
335135 5.41439
335162 5.55056
335175 5.72456
335188 6.06007
335201 6.74368
335215 8.15214
335227 10.6490
335240 12.9795
335253 12.2568
335266 10.1652
335277 8.71544
335289 7.78061
335300 7.17599
335312 6.77167
335335 6.27274
335358 5.98708
