Ni-60(n,tot) ENDF/B-VII.1
Energy(eV) XS(b)
1.00000E-05 121.828
1.25000E-05 109.081
1.50000E-05 99.6721
2.00000E-05 86.4647
2.75000E-05 73.8978
3.50000E-05 65.6272
4.25000E-05 59.6566
5.00000E-05 55.0858
6.25000E-05 49.3853
7.50000E-05 45.1774
0.000100000 39.2708
0.000125000 35.2400
0.000150000 32.2645
0.000200000 28.0880
0.000275000 24.1140
0.000350000 21.4986
0.000425000 19.6105
0.000500000 18.1651
0.000625000 16.3624
0.000750000 15.0318
0.00100000 13.1639
0.00125000 11.8893
0.00150000 10.9484
0.00200000 9.62760
0.00275000 8.37091
0.00350000 7.54384
0.00425000 6.94677
0.00500000 6.48968
0.00625000 5.91962
0.00750000 5.49882
0.0100000 4.90814
0.0125000 4.50504
0.0150000 4.20748
0.0200000 3.78979
0.0253000 3.49038
0.0260719 3.45458
0.0268438 3.42033
0.0283875 3.35608
0.0314750 3.24205
0.0345625 3.14367
0.0376500 3.05765
0.0438250 2.91374
0.0500000 2.79739
0.0625000 2.61710
0.0750000 2.48400
0.100000 2.29716
0.125000 2.16965
0.150000 2.07552
0.200000 1.94338
0.275000 1.81762
0.350000 1.73484
0.500000 1.62931
0.750000 1.53008
1.00000 1.47091
1.50000 1.40069
2.00000 1.35882
2.75000 1.31885
3.50000 1.29244
5.00000 1.25854
7.50000 1.22623
10.0000 1.20659
15.0000 1.18269
20.0000 1.16778
27.5000 1.15270
30.0000 1.14879
35.0000 1.14200
40.0000 1.13625
50.0000 1.12672
60.0000 1.11895
75.0000 1.10921
80.0000 1.10633
100.000 1.09589
150.000 1.07439
200.000 1.05596
275.000 1.03085
300.000 1.02288
350.000 1.00728
400.000 0.992049
500.000 0.962295
600.000 0.933157
700.000 0.904428
750.000 0.890182
800.000 0.875997
999.999 0.819770
1000.00 0.819770
1000.01 0.819768
1000.01 0.819767
1000.02 0.819765
1000.04 0.819760
1000.07 0.819750
1000.14 0.819730
1000.28 0.819691
1000.57 0.819612
1001.13 0.819454
1002.26 0.819138
1004.53 0.818507
1009.05 0.817245
1018.10 0.814722
1036.19 0.809679
1072.37 0.799610
1144.75 0.779533
1217.12 0.759542
1253.31 0.749608
1271.40 0.744770
1280.45 0.742830
1284.97 0.743635
1287.23 0.750203
1288.36 0.772114
1288.93 0.826456
1289.21 0.920827
1289.35 1.02851
1289.49 1.23301
1289.62 1.52824
1289.75 1.72475
1289.87 1.52824
1290.00 1.23295
1290.17 0.996709
1290.35 0.889138
1290.69 0.805497
1291.39 0.762228
1292.77 0.745621
1295.55 0.739841
1301.09 0.736920
1312.19 0.733505
1334.38 0.727326
1378.75 0.715156
1467.50 0.690949
1645.00 0.642930
2000.00 0.548718
2126.45 0.516237
2189.68 0.501776
2205.49 0.499644
2213.39 0.499554
2221.29 0.501086
2229.20 0.506705
2233.15 0.513327
2237.10 0.526242
2241.05 0.554894
2243.03 0.583746
2245.00 0.636256
2245.99 0.680260
2246.98 0.746932
2247.97 0.854850
2248.95 1.04635
2249.45 1.20318
2249.94 1.43596
2250.44 1.80263
2250.93 2.42879
2251.42 3.62875
2251.67 4.68795
2251.92 6.37537
2252.17 9.28754
2252.41 14.8890
2252.54 19.8035
2252.66 27.3476
2252.78 39.4590
2252.91 59.1082
2253.05 94.4375
2253.20 117.790
2253.35 94.1896
2253.50 59.1178
2253.66 34.3398
2253.83 21.5139
2254.00 14.5492
2254.17 10.4853
2254.33 7.91534
2254.50 6.20883
2254.84 4.17147
2255.17 3.04735
2255.51 2.36805
2256.18 1.62242
2256.85 1.24413
2257.52 1.02700
2258.19 0.890655
2258.86 0.799720
2260.20 0.689456
2261.54 0.627688
2262.88 0.589581
2264.22 0.564377
2266.91 0.534022
2269.59 0.516993
2274.95 0.499160
2280.32 0.490077
2285.68 0.484486
2296.41 0.477522
2317.87 0.469016
2339.32 0.462497
2425.15 0.439812
2596.81 0.396975
2940.12 0.315044
3000.00 0.301279
3156.69 0.266105
3313.37 0.232260
3626.75 0.169228
4000.00 0.104135
4250.00 0.0681510
4500.00 0.0396905
4625.00 0.0287366
4750.00 0.0202450
4812.50 0.0169947
4875.00 0.0144496
4937.50 0.0126424
5000.00 0.0116077
5066.30 0.0113951
5132.59 0.0121386
5198.89 0.0138871
5265.19 0.0166944
5331.48 0.0206239
5397.78 0.0257745
5464.07 0.0325581
5497.22 0.0381941
5505.51 0.0412255
5513.80 0.0480507
5517.94 0.0565832
5522.08 0.0793559
5524.16 0.109592
5526.23 0.190412
5527.26 0.294737
5527.78 0.392402
5528.30 0.558290
5528.82 0.873687
5529.08 1.14979
5529.34 1.58588
5529.59 2.32912
5529.85 3.73125
5529.98 4.93648
5530.11 6.75035
5530.24 9.58766
5530.37 14.0519
5530.54 22.4656
5530.70 28.0776
5530.87 22.4676
5531.03 14.0545
5531.15 9.98400
5531.26 7.28258
5531.37 5.45886
5531.49 4.22130
5531.72 2.70939
5531.95 1.87673
5532.18 1.37575
5532.40 1.05296
5532.86 0.677998
5533.32 0.477647
5533.78 0.358507
5534.69 0.230147
5536.53 0.129948
5538.36 0.0924737
5542.02 0.0647564
5545.69 0.0550059
5553.01 0.0484863
5560.34 0.0467908
5589.65 0.0482224
5648.27 0.0564677
5765.52 0.0776145
6000.00 0.135732
6220.69 0.212368
6441.38 0.314288
6882.76 0.614192
7324.14 1.08775
7765.52 1.81389
8000.00 2.34183
8500.00 3.94332
9000.00 6.52644
9500.00 10.7753
10000.0 17.9733
10338.5 25.7050
10677.0 37.2079
11015.5 54.5058
11354.0 80.3381
11785.2 128.838
12000.9 157.827
12108.7 172.070
12162.6 178.822
12189.5 182.068
12203.0 183.671
12209.7 184.540
12211.4 184.825
12213.1 185.264
12214.0 185.686
12214.8 186.637
12215.2 187.755
12215.4 188.754
12215.6 190.384
12215.8 193.321
12216.0 195.904
12216.1 199.425
12216.2 205.599
12216.3 215.138
12216.4 234.557
12216.5 272.560
12216.6 325.590
12216.7 359.932
12216.8 325.651
12216.8 272.644
12216.9 242.744
12217.0 224.200
12217.1 212.910
12217.2 205.734
12217.3 197.651
12217.5 193.714
12217.6 191.275
12217.8 189.843
12218.1 188.166
12218.4 187.306
12218.7 186.816
12219.3 186.327
12220.6 186.036
12221.8 186.017
12224.3 186.180
12226.8 186.416
12236.7 187.481
12256.6 189.632
12296.4 193.721
12375.9 200.848
12535.0 210.063
13076.9 190.540
13347.9 165.042
13483.4 152.043
13551.1 145.754
13585.0 142.711
13593.5 141.985
13602.0 141.326
13606.2 141.082
13608.3 141.024
13610.4 141.068
13612.5 141.351
13613.6 141.700
13614.7 142.354
13615.7 143.700
13616.2 144.921
13616.8 146.889
13617.3 150.307
13617.8 156.882
13618.1 162.733
13618.4 171.396
13618.6 185.075
13618.9 206.823
13619.2 247.672
13619.5 273.776
13619.9 246.348
13620.2 206.766
13620.6 177.830
13620.9 163.342
13621.3 155.277
13621.7 150.678
13622.1 147.705
13622.4 145.775
13623.2 143.405
13623.9 142.074
13624.7 141.243
13626.2 140.277
13627.7 139.719
13629.2 139.342
13632.2 138.825
13638.2 138.107
13644.1 137.512
13668.1 135.366
13716.0 131.284
13912.4 115.930
14108.8 102.696
14501.5 81.8356
14894.3 66.7627
15287.0 55.7124
16072.5 41.0777
16858.0 32.1090
17643.5 26.1686
18429.0 21.9771
20000.0 16.4362
20634.1 14.8219
20951.2 14.0999
21109.7 13.7564
21189.0 13.5886
21228.6 13.5058
21248.4 13.4651
21258.3 13.4467
21263.3 13.4447
21265.8 13.4689
21267.0 13.5590
21267.6 13.7951
21267.9 14.2296
21268.2 15.7998
21268.5 18.1762
21268.8 15.7989
21269.1 14.2273
21269.4 13.7916
21270.0 13.5546
21271.2 13.4582
21273.7 13.4235
21278.6 13.4049
21288.4 13.3825
21308.0 13.3415
21347.2 13.2610
21425.7 13.1020
21582.6 12.7903
21896.5 12.1899
22524.3 11.0615
23152.0 9.99701
23465.9 9.47987
23544.4 9.35419
23622.8 9.23627
23662.1 9.18785
23681.7 9.17181
23701.3 9.16922
23720.9 9.20011
23730.7 9.24640
23740.5 9.34277
23750.3 9.56203
23755.3 9.78270
23760.2 10.1782
23765.1 10.9889
23767.5 11.7501
23770.0 13.0452
23772.4 15.5078
23773.6 17.6728
23774.9 21.0598
23776.1 26.8695
23777.3 37.7006
23777.9 47.0978
23778.5 61.0956
23779.2 82.9004
23779.8 117.053
23780.6 182.207
23781.3 225.855
23782.1 182.425
23782.9 117.262
23783.8 73.6503
23784.6 50.1184
23785.4 36.9343
23786.3 29.0361
23787.1 24.0002
23788.0 20.6173
23789.6 16.5393
23791.3 14.2542
23793.0 12.8588
23796.3 11.3201
23799.7 10.5311
23803.1 10.0754
23809.8 9.59241
23816.5 9.35378
23823.2 9.21750
23836.6 9.07628
23850.0 9.01932
23856.7 9.01633
23863.4 9.04026
23870.2 9.12192
23873.5 9.21274
23876.9 9.38063
23880.2 9.72969
23881.9 10.0585
23883.6 10.6115
23885.3 11.6570
23886.1 12.5604
23886.9 13.9451
23887.8 16.2730
23888.6 20.5088
23889.0 24.0000
23889.4 29.1061
23889.9 36.7458
23890.3 47.8357
23890.9 71.5348
23891.5 87.0474
23892.1 71.1841
23892.7 47.8973
23893.2 33.8903
23893.8 25.6306
23894.3 20.6691
23894.9 17.5898
23896.0 14.0953
23897.1 12.3122
23898.2 11.2831
23899.3 10.6484
23901.4 9.93195
23903.6 9.55666
23905.8 9.33688
23910.2 9.09943
23914.5 8.97796
23918.9 8.90564
23927.6 8.82296
23945.1 8.74052
23962.6 8.69020
23997.5 8.61401
24032.4 8.54778
24102.3 8.42345
24172.2 8.30239
24451.6 7.81965
25010.5 6.81080
26128.4 4.39717
26687.3 2.83487
27246.2 1.00454
27385.9 0.565061
27525.6 0.201793
27595.5 0.0759363
27630.4 0.0343818
27665.4 0.0110014
27682.8 0.00724399
27700.3 0.00945548
27735.2 0.0341144
27752.7 0.0578744
27770.2 0.0902069
27805.1 0.184001
27840.0 0.323075
27875.0 0.516416
27909.9 0.774987
27944.8 1.11199
28014.7 2.08874
28084.6 3.61897
28154.4 5.95542
28224.3 9.46072
28294.1 14.6384
28364.0 22.1251
28399.8 27.0718
28417.7 29.8603
28426.6 31.3384
28431.1 32.1089
28433.4 32.5425
28434.5 32.8932
28435.0 33.3968
28435.3 34.2000
28435.6 37.0073
28435.8 41.1864
28436.0 37.0854
28436.3 34.6844
28436.5 33.8942
28436.9 33.4351
28437.7 33.3469
28439.4 33.5659
28442.8 34.1463
28449.6 35.3705
28463.2 37.9217
28476.8 40.5973
28483.6 41.9969
28487.0 42.7767
28488.7 43.3999
28489.6 44.3440
28490.0 46.0256
28490.2 48.3172
28490.4 54.1167
28490.6 60.6918
28490.7 64.9124
28490.8 60.7610
28491.0 54.2449
28491.1 50.5184
28491.2 48.3776
28491.4 46.1948
28491.8 44.7481
28492.7 44.2099
28494.5 44.3294
28498.1 45.0052
28505.2 46.5073
28519.3 49.6179
28547.7 56.0745
28604.5 69.2069
28718.0 89.3092
28894.5 88.6296
29071.0 70.4812
29269.0 53.5219
29368.0 47.4017
29417.6 44.8186
29442.3 43.6308
29454.7 43.0625
29460.9 42.7916
29464.0 42.6848
29465.5 42.7208
29466.3 42.9770
29466.7 43.5740
29466.9 44.4020
29467.1 46.3783
29467.3 50.2546
29467.6 46.3564
29467.8 44.2993
29467.9 43.4897
29468.3 42.8868
29469.1 42.5625
29470.6 42.3908
29473.7 42.2250
29479.8 41.9506
29492.1 41.4273
29516.6 40.4249
29565.6 38.5695
29663.7 35.3702
29859.8 30.5026
30056.0 27.0110
30105.0 26.2903
30154.1 25.6196
30178.6 25.3024
30203.1 24.9994
30227.6 24.7305
30233.7 24.6868
30239.9 24.6939
30242.9 24.7621
30246.0 24.9944
30247.5 25.3052
30249.1 26.0561
30249.8 26.8916
30250.6 28.5412
30251.0 30.0825
30251.4 32.5076
30251.7 36.6071
30252.1 43.7893
30252.5 55.4972
30252.9 63.1532
30253.3 55.4885
30253.7 43.7544
30254.1 37.2841
30254.4 33.2272
30254.8 30.7126
30255.1 29.1302
30255.8 27.2754
30256.4 26.3045
30257.8 25.3744
30259.1 24.9627
30261.8 24.6026
30264.5 24.4428
30269.9 24.2826
30275.3 24.1852
30296.8 23.9095
30318.3 23.6700
30339.8 23.4413
30382.8 23.0044
30425.9 22.5908
30598.0 21.1285
30942.3 18.8870
31630.8 15.9882
32319.3 14.1738
32491.5 13.8201
32663.6 13.4998
32749.7 13.3552
32792.7 13.2898
32835.7 13.2334
32878.8 13.1973
32900.3 13.1972
32921.8 13.2258
32932.6 13.2617
32943.3 13.3251
32954.1 13.4385
32964.8 13.6536
32970.2 13.8358
32975.6 14.1111
32981.0 14.5511
32986.4 15.3118
32991.7 16.7867
32994.4 18.1001
32997.1 20.2086
32999.8 23.8838
33002.5 31.0561
33003.8 37.4399
33005.2 47.3908
33006.5 63.6780
33007.9 90.7213
33009.4 137.673
33010.9 168.826
33012.5 137.628
33014.0 91.0388
33015.4 62.4279
33016.9 45.9007
33018.3 36.0647
33019.7 29.9107
33022.6 23.0602
33025.5 19.6138
33028.3 17.6443
33031.2 16.4260
33036.9 15.0543
33042.7 14.3416
33048.4 13.9231
33054.1 13.6554
33059.8 13.4730
33071.3 13.2439
33082.8 13.1081
33094.2 13.0184
33105.7 12.9542
33128.6 12.8664
33151.5 12.8071
33197.3 12.7311
33243.2 12.7023
33266.1 12.7171
33289.0 12.7749
33311.9 12.9337
33323.4 13.1015
33334.8 13.4042
33346.3 14.0126
33352.0 14.5673
33357.7 15.4747
33363.5 17.0947
33366.3 18.4222
33369.2 20.3688
33372.1 23.3827
33374.9 28.2768
33377.8 36.7047
33380.6 51.6043
33383.6 75.2388
33386.5 90.9735
33389.4 75.2985
33392.3 51.7856
33395.3 36.3305
33398.3 27.8045
33401.3 22.9462
33404.3 20.0078
33407.3 18.1095
33410.3 16.8286
33416.3 15.2611
33422.3 14.3786
33428.3 13.8350
33440.2 13.2243
33452.2 12.9032
33464.2 12.7105
33488.2 12.4922
33512.1 12.3693
33536.1 12.2865
33584.0 12.1716
33632.0 12.0854
33679.9 12.0116
33775.8 11.8808
33967.5 11.6488
34159.3 11.4370
34926.2 10.7074
36460.1 9.59195
37994.0 8.72218
38760.9 8.32937
39144.4 8.13561
39336.1 8.03988
39384.1 8.01772
39432.0 8.00048
39456.0 7.99893
39479.9 8.01801
39491.9 8.05592
39503.9 8.17337
39509.9 8.33735
39512.9 8.49820
39515.9 8.78184
39518.9 9.35533
39520.4 9.88840
39521.9 10.7769
39523.4 12.4436
39524.1 13.8731
39524.9 16.0816
39525.6 19.7268
39526.4 26.2719
39527.1 39.2797
39527.5 50.4164
39527.9 66.7937
39528.4 102.519
39529.0 126.015
39529.6 102.823
39530.1 67.1696
39530.5 50.4130
39530.9 38.8767
39531.3 31.1430
39531.7 25.9556
39532.5 19.4513
39533.2 15.9037
39534.0 13.7347
39534.8 12.3524
39536.3 10.7371
39537.9 9.86393
39539.4 9.34327
39542.5 8.78103
39545.6 8.49779
39548.7 8.33581
39554.9 8.16538
39567.3 8.03228
39579.6 7.97919
39604.4 7.93142
39629.1 7.90566
39678.6 7.87003
39728.1 7.84029
39926.1 7.73027
40124.1 7.61990
40322.1 7.50560
41114.1 6.96882
41510.1 6.60411
41906.1 6.08809
42104.1 5.71956
42302.1 5.21070
42401.1 4.87089
42500.1 4.44266
42549.6 4.18365
42599.1 3.88687
42648.6 3.55447
42661.0 3.47557
42673.4 3.42463
42679.5 3.44017
42685.7 3.56886
42688.8 3.77725
42691.9 4.33844
42693.5 5.02178
42694.2 5.61322
42695.0 6.53582
42695.8 8.10134
42696.6 10.9279
42696.9 13.2960
42697.3 16.6722
42697.7 21.8635
42698.1 29.5037
42698.7 45.5211
42699.2 56.0829
42699.8 45.6780
42700.3 29.7038
42700.8 19.9287
42701.4 14.2917
42701.9 10.8948
42702.4 8.82086
42703.5 6.49959
42704.5 5.32824
42705.6 4.65917
42706.6 4.24104
42708.7 3.76409
42712.9 3.35021
42717.1 3.16415
42725.5 2.96930
42733.9 2.84259
42767.4 2.43476
42801.0 2.01595
42834.6 1.55462
42868.2 1.05306
42901.7 0.541177
42918.5 0.307940
42935.3 0.123019
42943.7 0.0643457
42952.1 0.0464611
42960.5 0.136078
42964.7 0.460052
42965.7 0.752476
42966.8 1.48103
42967.3 2.35816
42967.8 4.28880
42968.1 6.27734
42968.3 9.97112
42968.6 17.7286
42968.7 24.8722
42968.9 36.1045
42969.0 58.3535
42969.2 72.3923
42969.4 58.5662
42969.5 36.3753
42969.7 23.8157
42969.9 16.3195
42970.2 8.59262
42970.5 5.23402
42970.8 3.56437
42971.4 1.95484
42972.0 1.27559
42973.2 0.722501
42974.5 0.521218
42979.4 0.393787
42984.3 0.496506
42989.2 0.677567
42999.0 1.24371
43008.8 2.14695
43018.6 3.52465
43028.5 5.57817
43038.3 8.58476
43048.1 12.8970
43061.4 21.4370
43074.6 33.3777
43087.9 47.0158
43101.1 57.9423
43114.4 62.2762
43127.6 60.3572
43154.1 49.2368
43171.3 42.2387
43188.6 36.6128
43223.0 28.8257
43257.4 23.9972
43291.9 20.8192
43326.3 18.6045
43360.8 16.9865
43429.6 14.7976
43498.5 13.3942
43567.4 12.4209
43705.2 11.1595
43842.9 10.3747
43980.7 9.83593
44256.2 9.13457
44807.3 8.37000
45358.3 7.93025
46460.5 7.38450
47011.5 7.18584
47287.0 7.09685
47424.8 7.05464
47493.7 7.03475
47528.1 7.02629
47545.3 7.02435
47554.0 7.02890
47558.3 7.04987
47560.4 7.12445
47561.5 7.35801
47562.0 7.94188
47562.3 8.97512
47562.6 12.3850
47562.8 17.7520
47563.0 12.3855
47563.3 9.33518
47563.5 8.20513
47563.9 7.48500
47564.8 7.17135
47566.5 7.06420
47570.0 7.03319
47577.0 7.02685
47590.9 7.04005
47604.8 7.12795
47611.8 7.40859
47613.5 7.64403
47615.2 8.19279
47616.1 8.81535
47617.0 10.1864
47617.4 11.6409
47617.9 14.3850
47618.3 20.8236
47618.5 27.4408
47618.7 38.5645
47619.0 56.7851
47619.2 69.5583
47619.4 57.2416
47619.7 39.3263
47619.9 29.6281
47620.1 23.4951
47620.4 17.3409
47620.8 14.9365
47621.2 14.2454
47621.9 16.0416
47622.3 18.9128
47622.7 23.8938
47623.1 33.0904
47623.6 39.3837
47624.1 32.9095
47624.5 23.4110
47625.0 16.5657
47625.6 13.0081
47626.6 9.93589
47627.7 8.73283
47628.7 8.15075
47630.9 7.61526
47633.0 7.38534
47637.2 7.19204
47641.4 7.11347
47658.3 7.02303
47692.2 6.98747
47759.8 6.96038
47895.1 6.91997
48165.7 6.84580
48706.9 6.70757
49248.1 6.57890
49518.7 6.51744
49654.0 6.48750
49721.6 6.47350
49755.4 6.47011
49772.4 6.48253
49780.8 6.54051
49785.0 6.73780
49787.2 7.27590
49788.2 8.35737
49788.7 9.80473
49789.3 13.0227
49789.6 16.9645
49790.0 19.6251
49790.4 16.9998
49790.7 13.0660
49791.1 10.3681
49791.6 8.90905
49792.4 7.63398
49794.0 6.89803
49797.3 6.59456
49803.8 6.49423
49816.9 6.46266
49843.1 6.44902
49895.4 6.43548
50000.0 6.41230
50453.2 6.31655
50679.8 6.26992
50793.1 6.24688
50849.8 6.23566
50878.1 6.23142
50892.3 6.23546
50899.4 6.26212
50902.9 6.36498
50904.7 6.69854
50905.6 7.57271
50906.0 9.17788
50906.2 11.1447
50906.4 15.4313
50906.8 24.7226
50907.2 15.5270
50907.5 10.1590
50907.8 8.24957
50908.5 7.02686
50909.8 6.48651
50912.4 6.30096
50917.7 6.24428
50928.2 6.22635
50949.3 6.21762
50991.4 6.20784
51075.6 6.19059
51244.0 6.15708
51412.4 6.12429
51496.6 6.11003
51538.7 6.11246
51559.7 6.15343
51565.0 6.19893
51570.2 6.32694
51572.9 6.49845
51575.5 6.94957
51576.8 7.51677
51578.1 8.86401
51578.8 10.3794
51579.4 13.4987
51579.8 16.4253
51580.1 21.3056
51580.4 29.9930
51580.7 45.5533
51581.1 69.6425
51581.4 85.3558
51581.7 69.9217
51582.0 45.8823
51582.3 32.9258
51582.5 24.6266
51582.8 19.4440
51583.0 16.0847
51583.6 12.2245
51584.1 10.2397
51585.1 8.31638
51586.1 7.47997
51588.2 6.77897
51590.3 6.50245
51594.4 6.28628
51598.5 6.20453
51615.1 6.11778
51648.1 6.08823
51714.2 6.06889
51846.5 6.04150
52110.9 5.99048
52375.4 5.94047
52507.6 5.91569
52573.7 5.90345
52606.8 5.89777
52623.3 5.89659
52631.6 5.90239
52635.7 5.92885
52637.8 6.02256
52638.8 6.30102
52639.3 6.95333
52639.6 8.00440
52639.8 10.9573
52640.1 16.0289
52640.4 10.9578
52640.6 8.21035
52640.8 7.14599
52641.3 6.40888
52642.1 6.06118
52643.9 5.93973
52647.5 5.90287
52654.6 5.89167
52668.8 5.88645
52697.2 5.88050
52754.0 5.86978
52867.5 5.84866
53094.7 5.80668
53549.0 5.72325
54457.7 5.55724
55366.3 5.39004
55820.6 5.30499
56047.8 5.26195
56161.4 5.24088
56218.2 5.23385
56246.6 5.24633
56260.8 5.31776
56264.3 5.39252
56267.9 5.59788
56269.6 5.86845
56271.4 6.55702
56272.3 7.39504
56273.2 9.28280
56273.6 11.3234
56274.1 15.1425
56274.3 18.4394
56274.5 23.4854
56274.7 31.4905
56275.0 44.8261
56275.2 68.8450
56275.5 84.7580
56275.8 69.1656
56276.0 45.1965
56276.3 29.2374
56276.6 20.5030
56276.9 15.6126
56277.2 12.7645
56277.8 9.60109
56278.3 8.08572
56279.5 6.70863
56280.6 6.13339
56282.9 5.66464
56285.2 5.48283
56289.8 5.34267
56294.4 5.29002
56312.7 5.23312
56349.4 5.21110
56422.7 5.19254
56569.4 5.16263
56716.1 5.13382
56789.5 5.12098
56826.2 5.12124
56844.5 5.14711
56853.7 5.24848
56858.2 5.55190
56860.5 6.23402
56861.7 7.28503
56862.3 8.34544
56862.8 10.1645
56863.5 13.2001
56864.1 15.2759
56864.7 13.2441
56865.4 10.2189
56866.4 7.57533
56867.4 6.47395
56869.3 5.68611
56873.3 5.30226
56881.1 5.16113
56896.9 5.11492
56928.4 5.09626
56991.5 5.08009
57117.6 5.05357
57369.8 5.00153
57874.2 4.89453
58882.9 4.66171
59891.7 4.38970
60900.5 4.04997
61909.3 3.58390
62413.7 3.26565
62918.1 2.84924
63422.5 2.27302
63674.7 1.89301
63926.9 1.42790
64179.1 0.865401
64305.2 0.556664
64431.3 0.257846
64494.3 0.130867
64525.8 0.0791851
64557.4 0.0391767
64588.9 0.0146897
64620.4 0.0107443
64651.9 0.0338324
64683.5 0.0923904
64715.0 0.197501
64746.5 0.363568
64778.0 0.609729
64809.6 0.960866
64841.1 1.45017
64872.6 2.12053
64904.1 3.02830
64919.9 3.59336
64927.8 3.90977
64931.7 4.08309
64933.7 4.19394
