Cu-65(n,tot) ENDF/B-VII.1
Energy(eV) XS(b)
1.00000E-05 121.854
1.25000E-05 110.445
1.50000E-05 102.023
2.00000E-05 90.2015
2.75000E-05 78.9533
3.50000E-05 71.5505
4.25000E-05 66.2064
5.00000E-05 62.1152
6.25000E-05 57.0129
7.50000E-05 53.2465
0.000100000 47.9597
0.000125000 44.3519
0.000150000 41.6886
0.000200000 37.9503
0.000275000 34.3933
0.000350000 32.0524
0.000425000 30.3624
0.000500000 29.0686
0.000625000 27.4551
0.000750000 26.2641
0.00100000 24.5923
0.00125000 23.4514
0.00150000 22.6092
0.00200000 21.4270
0.00275000 20.3022
0.00350000 19.5619
0.00425000 19.0275
0.00500000 18.6184
0.00625000 18.1081
0.00750000 17.7315
0.0100000 17.2028
0.0125000 16.8420
0.0150000 16.5756
0.0200000 16.2017
0.0253000 15.9337
0.0253000 15.9337
0.0253001 15.9337
0.0253001 15.9337
0.0253002 15.9337
0.0253004 15.9337
0.0253008 15.9337
0.0253015 15.9336
0.0253030 15.9336
0.0253061 15.9335
0.0253121 15.9332
0.0253241 15.9327
0.0253483 15.9317
0.0253965 15.9296
0.0254930 15.9256
0.0256860 15.9175
0.0260719 15.9017
0.0268438 15.8710
0.0283875 15.8135
0.0314750 15.7114
0.0376500 15.5463
0.0500000 15.3133
0.0625000 15.1518
0.0750000 15.0326
0.100000 14.8653
0.125000 14.7510
0.150000 14.6665
0.200000 14.5479
0.275000 14.4349
0.350000 14.3602
0.500000 14.2647
0.750000 14.1741
1.00000 14.1193
1.50000 14.0528
2.00000 14.0116
2.75000 13.9704
3.50000 13.9414
5.00000 13.9003
7.50000 13.8537
10.0000 13.8185
15.0000 13.7619
20.0000 13.7137
27.5000 13.6483
35.0000 13.5874
50.0000 13.4725
75.0000 13.2919
100.000 13.1190
150.000 12.7826
175.000 12.6080
187.500 12.5116
200.000 12.3979
207.467 12.3101
211.201 12.2543
214.935 12.1838
218.668 12.0872
220.535 12.0223
222.402 11.9403
223.335 11.8912
224.269 11.8366
225.202 11.7797
226.135 11.7339
226.602 11.7286
227.069 11.7551
227.536 11.8537
228.002 12.1270
228.236 12.4079
228.469 12.8847
228.702 13.7318
228.936 15.3444
229.169 18.7687
229.286 22.0088
229.402 27.4291
229.519 37.2931
229.636 57.4042
229.694 75.8283
229.752 105.446
229.811 155.360
229.840 192.635
229.869 241.044
229.902 310.760
229.935 392.071
230.000 504.191
230.033 483.654
230.066 420.469
230.131 276.908
230.197 180.517
230.263 125.171
230.329 92.6032
230.395 72.3203
230.461 58.9663
230.526 49.7440
230.658 38.1991
230.790 31.4958
230.922 27.2461
231.185 22.3247
231.449 19.6539
231.712 18.0230
231.976 16.9416
232.239 16.1812
232.767 15.1951
233.294 14.5921
233.821 14.1894
234.348 13.9032
235.402 13.5256
236.456 13.2884
237.510 13.1258
238.565 13.0071
240.673 12.8443
242.781 12.7365
246.998 12.5984
251.215 12.5094
255.431 12.4438
263.865 12.3465
280.732 12.2072
297.598 12.0955
365.066 11.7262
500.000 11.1016
750.000 10.1220
999.999 9.27915
1000.00 9.27914
1000.01 9.27912
1000.01 9.27910
1000.02 9.27907
1000.05 9.27900
1000.09 9.27886
1000.18 9.27858
1000.36 9.27801
1000.71 9.27689
1001.42 9.27463
1002.83 9.27013
1005.65 9.26114
1011.31 9.24317
1022.61 9.20735
1045.23 9.13611
1090.45 8.99511
1180.90 8.71759
1271.34 8.44159
1316.57 8.29741
1327.87 8.25768
1339.18 8.21257
1344.83 8.18527
1347.66 8.16919
1350.48 8.15046
1353.31 8.12795
1354.72 8.11518
1356.14 8.10250
1357.55 8.09527
1358.26 8.10017
1358.96 8.12312
1359.32 8.14997
1359.67 8.19787
1360.02 8.28596
1360.38 8.45770
1360.73 8.82888
1360.91 9.18220
1361.08 9.77003
1361.26 10.8396
1361.44 12.9793
1361.52 14.9299
1361.61 17.9847
1361.70 23.0053
1361.79 31.3672
1361.89 47.0714
1362.00 59.0634
1362.11 50.7408
1362.21 35.9378
1362.29 28.1039
1362.37 22.8539
1362.45 19.3427
1362.52 16.9352
1362.68 13.9905
1362.84 12.3531
1362.99 11.3416
1363.15 10.6765
1363.46 9.88160
1363.77 9.43547
1364.08 9.15868
1364.39 8.97228
1364.70 8.84042
1365.33 8.66749
1365.95 8.56067
1366.57 8.48872
1367.20 8.43720
1368.44 8.36816
1369.69 8.32385
1372.18 8.26918
1374.67 8.23533
1377.16 8.21114
1382.14 8.17630
1387.13 8.14999
1392.11 8.12773
1402.07 8.08902
1441.94 7.95707
1521.66 7.71040
1681.11 7.20505
1840.55 6.64184
2000.00 5.95081
2130.00 5.18742
2195.00 4.67701
2260.00 4.01815
2292.50 3.60773
2325.00 3.12487
2357.50 2.55642
2390.00 1.90961
2406.25 1.58323
2422.50 1.30756
2438.75 1.20011
2446.88 1.29262
2455.00 1.57584
2463.13 2.18789
2471.25 3.38545
2479.38 5.67568
2483.44 7.52979
2487.50 10.1434
2491.56 13.8881
2495.63 19.3640
2499.69 27.5908
2503.75 40.3613
2507.81 61.0146
2511.88 96.0122
2515.94 158.237
2520.00 271.157
2524.50 478.843
2529.00 648.014
2533.50 558.214
2538.00 379.638
2542.72 250.604
2547.44 175.465
2552.15 130.557
2556.87 102.096
2561.59 83.0093
2566.30 69.5865
2575.74 52.3344
2585.17 41.9723
2594.61 35.1873
2613.48 26.9913
2632.34 22.3026
2651.21 19.3018
2670.08 17.2286
2688.95 15.7145
2726.69 13.6537
2764.43 12.3143
2802.16 11.3694
2839.90 10.6623
2915.38 9.66087
2990.85 8.96834
3066.33 8.44338
3104.06 8.21801
3122.93 8.10616
3127.65 8.07536
3132.37 8.03969
3134.72 8.01734
3137.08 7.98749
3138.26 7.96690
3139.44 7.94045
3140.03 7.92712
3140.62 7.92804
3140.92 7.95531
3141.21 8.05796
3141.36 8.19376
3141.51 8.48384
3141.65 9.17662
3141.73 9.87696
3141.80 11.0134
3141.90 13.5775
3142.00 15.8899
3142.10 15.0506
3142.20 12.8858
3142.31 11.1774
3142.42 10.2007
3142.53 9.62166
3142.64 9.25642
3142.86 8.83859
3143.08 8.61741
3143.52 8.39492
3143.97 8.28662
3144.85 8.18180
3145.73 8.13023
3147.49 8.07684
3149.26 8.04687
3152.79 8.00897
3156.31 7.98165
3170.43 7.89852
3198.65 7.75916
3255.09 7.50850
3367.99 7.05957
3480.88 6.64126
3537.33 6.43224
3565.55 6.32323
3572.60 6.29414
3579.66 6.26338
3583.19 6.24763
3586.72 6.23515
3588.48 6.23685
3590.24 6.26796
3591.13 6.32761
3591.57 6.39227
3592.01 6.51305
3592.45 6.76544
3592.67 7.00315
3592.89 7.39869
3593.11 8.12348
3593.22 8.72218
3593.33 9.61079
3593.44 10.9920
3593.55 13.2565
3593.66 17.1788
3593.77 24.1632
3593.89 35.8224
3594.00 44.3958
3594.12 37.7000
3594.23 26.4506
3594.31 20.9796
3594.38 17.2169
3594.54 12.8643
3594.69 10.6320
3594.84 9.36579
3595.00 8.58475
3595.15 8.07026
3595.45 7.45543
3595.76 7.11448
3596.07 6.90453
3596.68 6.66741
3597.29 6.54114
3597.90 6.46470
3599.13 6.37792
3601.58 6.29956
3604.03 6.26123
3608.92 6.21781
3613.82 6.18874
3623.62 6.14314
3633.41 6.10339
3672.60 5.96270
3711.78 5.85004
3750.96 5.80866
3790.14 5.99026
3809.73 6.31127
3829.33 7.02323
3848.92 8.67575
3858.71 10.2985
3868.51 13.0537
3878.30 18.0763
3888.10 28.1760
3893.00 37.2108
3897.90 51.3740
3902.79 74.3936
3907.69 112.338
3920.00 253.910
3926.16 221.161
3932.31 148.842
3936.58 111.134
3940.84 85.0019
3945.11 67.0637
3949.37 54.5154
3957.91 38.8402
3966.44 29.8890
3974.97 24.3120
3983.50 20.5948
4000.56 16.0665
4017.63 13.4799
4034.69 11.8356
4068.82 9.88563
4102.94 8.76463
4137.07 8.02026
4171.19 7.47019
4205.32 7.02675
4273.57 6.28148
4307.70 5.92432
4341.83 5.55120
4375.95 5.16209
4393.02 4.98651
4410.08 4.88976
4427.14 5.07430
4435.67 5.46704
4444.20 6.36832
4452.74 8.45809
4457.00 10.4652
4461.27 13.7600
4465.53 19.4420
4469.80 29.8721
4474.07 50.4552
4476.20 67.9521
4478.33 93.1403
4482.17 161.706
4486.00 221.364
4489.84 195.125
4493.67 134.856
4497.63 90.9044
4501.58 65.0067
4505.54 49.4483
4509.49 39.5659
4513.45 32.9289
4517.41 28.2567
4525.32 22.2472
4533.23 18.6334
4541.14 16.2635
4556.96 13.3918
4572.79 11.7390
4588.61 10.6726
4620.25 9.37888
4651.90 8.61642
4683.54 8.10595
4746.84 7.44595
4810.13 7.01737
4873.42 6.70080
5000.00 6.23127
5214.45 5.64284
5428.90 5.13536
5643.35 4.61649
5750.57 4.32729
5804.18 4.16665
5830.99 4.07548
5837.69 4.04864
5844.39 4.01636
5847.74 3.99537
5851.09 3.96623
5852.77 3.94527
5854.44 3.91667
5855.28 3.90038
5856.12 3.89525
5856.54 3.91848
5856.96 4.02422
5857.17 4.17997
5857.38 4.55189
5857.48 4.93570
5857.58 5.60588
5857.69 6.87342
5857.79 9.30912
5857.90 13.5225
5858.00 17.1420
5858.10 15.5251
5858.21 11.8587
5858.28 9.80761
5858.36 8.40854
5858.51 6.76341
5858.66 5.91217
5858.81 5.42345
5859.11 4.90358
5859.41 4.64535
5860.02 4.39769
5860.62 4.28155
5861.82 4.17167
5863.03 4.11875
5865.44 4.06494
5867.85 4.03534
5872.67 3.99864
5877.49 3.97256
5887.14 3.93026
5896.78 3.89242
5935.36 3.74730
6012.50 3.43344
6089.65 3.05819
6128.23 2.83650
6147.51 2.71290
6157.16 2.64435
6161.98 2.60442
6164.39 2.58395
6165.59 2.60080
6166.20 2.71966
6166.50 3.02501
6166.65 3.48941
6166.80 4.65946
6166.90 6.17767
6167.00 7.40269
6167.10 6.70686
6167.20 5.33712
6167.33 4.20548
6167.46 3.62416
6167.71 3.12222
6168.21 2.81888
6169.23 2.67371
6171.25 2.60266
6175.30 2.55064
6183.40 2.48217
6199.59 2.35579
6231.98 2.08778
6264.37 1.78799
6272.47 1.70651
6280.56 1.62040
6284.61 1.57472
6288.66 1.52852
6290.69 1.51022
6292.71 1.51713
6293.72 1.56299
6294.23 1.62133
6294.73 1.73869
6295.24 1.99846
6295.49 2.25118
6295.75 2.68430
6296.00 3.49597
6296.13 4.18765
6296.25 5.22646
6296.38 6.89422
6296.50 9.69253
6296.63 14.7861
6296.76 24.2725
6296.88 39.4209
6297.00 51.0475
6297.12 42.8949
6297.24 28.3208
6297.32 21.7182
6297.39 17.0395
6297.54 11.2640
6297.68 8.14992
6297.83 6.32412
6297.98 5.17170
6298.13 4.39960
6298.42 3.46290
6298.71 2.93166
6299.01 2.60018
6299.59 2.22077
6300.77 1.88859
6301.94 1.74212
6304.29 1.60473
6306.64 1.53410
6311.34 1.45012
6316.04 1.39277
6334.83 1.25251
6353.63 1.25403
6372.42 1.57306
6381.82 1.98971
6391.22 2.74192
6400.61 4.09070
6410.01 6.56207
6419.41 11.3099
6424.11 15.2903
6428.81 21.1367
6433.51 29.9646
6438.20 43.6795
6442.90 65.5367
6447.60 100.536
6454.30 180.667
6461.00 253.519
6462.79 256.665
6463.00 256.297
6463.21 256.183
6463.91 254.445
6464.61 251.378
6466.01 242.167
6468.81 215.709
6474.41 157.674
6481.25 106.456
6488.08 75.7666
6494.92 57.1085
6501.76 45.1493
6508.59 37.0608
6515.43 31.3324
6529.10 23.9111
6542.78 19.4101
6556.45 16.4360
6570.12 14.3406
6576.96 13.5075
6580.38 13.1277
6582.09 12.9507
6582.94 12.9081
6583.37 13.0261
6583.58 13.3257
6583.69 13.7037
6583.80 14.4523
6583.90 15.7029
6584.00 16.7472
6584.10 16.2188
6584.20 15.0819
6584.37 13.9607
6584.53 13.4598
6584.86 13.0602
6585.52 12.7969
6586.84 12.5844
6589.47 12.3094
6594.74 11.8510
6605.28 11.0716
6626.35 9.85981
6668.50 8.25020
6710.65 7.21318
6731.73 6.81309
6742.26 6.62894
6747.53 6.53218
6750.17 6.47206
6751.48 6.43434
6752.14 6.44216
6752.47 6.55036
6752.64 6.77213
6752.80 7.46516
6753.00 9.32484
6753.20 8.33521
6753.33 7.62871
6753.46 7.24690
6753.72 6.89959
6754.23 6.67003
6755.26 6.54149
6757.32 6.45846
6761.44 6.37430
6769.67 6.24724
6786.15 6.02564
6819.10 5.64004
6884.99 5.00625
6950.89 4.47314
6983.83 4.21607
6992.07 4.14629
7000.31 4.06628
7004.43 4.01637
7008.54 3.94854
7010.60 3.89909
7012.66 3.82597
7013.69 3.77415
7014.72 3.71523
7015.24 3.70235
7015.75 3.77747
7016.01 3.94533
7016.27 4.42501
7016.40 4.97704
7016.52 6.03009
7016.65 8.23376
7016.78 13.0378
7016.89 20.7074
7017.00 27.7114
7017.11 25.2386
7017.22 18.6939
7017.29 15.2355
7017.37 12.7458
7017.52 9.71486
7017.66 8.05496
7017.81 7.07189
7018.11 5.99837
7018.40 5.44848
7018.99 4.91025
7019.58 4.65244
7020.76 4.40537
7021.94 4.28512
7024.30 4.16260
7026.66 4.09576
7031.38 4.01466
7036.09 3.95885
7045.53 3.87170
7054.97 3.79665
7092.72 3.52686
7168.21 3.00965
7243.71 2.47479
7319.20 1.89938
7394.70 1.27724
7432.44 0.963071
7470.19 0.686817
7489.06 0.593048
7507.94 0.568400
7526.81 0.682161
7536.25 0.833310
7545.69 1.08949
7555.12 1.50718
7564.56 2.18151
7574.00 3.28088
7583.43 5.12057
7592.87 8.33138
7602.31 14.2725
7607.03 19.1240
7611.74 26.0739
7616.46 36.1629
7621.18 50.7923
7638.00 128.657
7642.21 128.801
7646.41 115.892
7654.82 79.9423
7661.61 57.8294
7668.39 43.1405
7675.18 33.4649
7681.97 26.9252
7695.54 19.0926
7709.12 14.9135
7736.26 11.4071
7763.41 11.3398
7790.56 14.2972
7817.71 22.0282
7831.28 29.0700
7844.85 39.6822
7858.43 55.6985
7872.00 79.6157
7896.50 147.827
7921.00 210.643
7945.50 191.473
7970.00 137.622
7997.48 93.7518
8024.97 67.9851
8052.45 52.4786
8079.93 42.5511
8107.42 35.8106
8134.90 31.0030
8189.86 24.6943
8244.83 20.7920
8299.79 18.1601
8354.76 16.2604
8382.24 15.4703
8389.11 15.2735
8395.98 15.0607
8399.42 14.9368
8402.86 14.7811
8404.57 14.6779
8406.29 14.5443
8407.15 14.4689
8408.01 14.4333
8408.44 14.5062
8408.87 14.8534
8409.08 15.3466
8409.30 16.4497
8409.40 17.5136
8409.51 19.2369
8409.62 22.1413
8409.73 27.0918
8409.86 37.7304
8410.00 47.5376
8410.14 44.3055
8410.28 35.3417
8410.37 30.5743
8410.46 27.1253
8410.64 22.9007
8410.83 20.5781
8411.01 19.1950
8411.38 17.6782
8411.74 16.8958
8412.48 16.1218
8413.21 15.7443
8414.68 15.3705
8416.15 15.1776
8419.08 14.9611
8422.02 14.8252
8427.89 14.6315
8433.76 14.4771
8445.50 14.2124
8457.24 13.9759
8504.21 13.1680
8598.14 11.9387
8786.01 10.3240
8973.88 9.28164
9067.81 8.85996
9091.30 8.75221
9114.78 8.63119
9126.52 8.55653
9132.39 8.51082
9138.26 8.45424
9144.13 8.37665
9147.07 8.32268
9150.00 8.24942
9152.94 8.13962
9154.41 8.05917
9155.87 7.94759
9157.34 7.78066
9158.08 7.66175
9158.81 7.50503
9159.54 7.29382
9160.28 7.02742
9160.64 6.92277
9161.01 7.03692
9161.20 7.40434
9161.38 8.41897
9161.47 9.48127
9161.56 11.2652
9161.65 14.3855
9161.74 19.7919
9161.81 25.4688
9161.87 32.9212
9162.00 46.7494
9162.13 45.0556
9162.26 35.2333
9162.36 28.4525
9162.47 23.7965
9162.58 20.5893
9162.68 18.3671
9162.89 15.5473
9163.11 13.8961
9163.53 12.1055
9163.96 11.1789
9164.38 10.6188
9164.81 10.2471
9165.66 9.78687
9166.51 9.51321
9167.36 9.33201
9169.07 9.10544
9170.77 8.96772
9172.47 8.87366
9175.88 8.74935
9179.28 8.66620
9182.69 8.60220
9189.50 8.49700
9196.31 8.39206
9199.71 8.32881
9203.12 8.24809
9206.52 8.13188
9208.22 8.04804
9209.93 7.93217
9211.63 7.75815
9212.48 7.63302
9213.33 7.46542
9214.18 7.23286
9215.03 6.91602
9215.46 6.75628
9215.89 6.76713
9216.10 7.05373
9216.31 7.99313
9216.42 9.06118
9216.52 10.9686
9216.63 14.4799
9216.74 20.9853
9216.80 27.3540
9216.87 35.6076
9217.00 50.8592
9217.13 48.9812
9217.26 38.0783
9217.42 28.3918
9217.57 22.6227
9217.72 19.1332
9217.87 16.8916
9218.18 14.2741
9218.48 12.8389
9218.78 11.9501
9219.09 11.3516
9219.70 10.6034
9220.30 10.1579
9220.91 9.86354
9222.13 9.49948
9223.34 9.28258
9224.56 9.13831
9226.99 8.95665
9229.42 8.84531
9231.85 8.76869
9236.71 8.66708
9241.58 8.59976
9246.44 8.54964
9256.16 8.47545
9275.61 8.37189
9295.06 8.29234
9372.85 8.04717
9528.44 7.66597
9684.03 7.34313
9722.92 7.26423
9761.82 7.17926
9781.27 7.12933
9790.99 7.09973
9800.72 7.06400
9810.44 7.01638
9815.30 6.98405
9820.16 6.94103
9825.03 6.87849
9827.46 6.83419
9829.89 6.77511
9832.32 6.69299
9834.75 6.57988
9835.97 6.52441
9837.18 6.55200
9837.79 6.72043
9838.40 7.32605
9838.70 8.12110
9839.01 9.84795
9839.16 11.4663
9839.31 14.0804
9839.46 18.4490
9839.61 25.7839
9839.81 41.3711
9840.00 55.9457
9840.19 51.1213
9840.39 37.4718
9840.54 29.0585
9840.70 23.4209
9840.86 19.6696
9841.01 17.1034
9841.32 13.9559
9841.64 12.1812
9841.95 11.0712
9842.26 10.3275
9842.88 9.41277
9843.51 8.88079
9844.13 8.53865
9845.38 8.12847
9846.62 7.89390
9847.87 7.74291
9850.36 7.56035
9852.86 7.45370
9855.35 7.38328
9860.34 7.29469
9865.33 7.23973
9870.32 7.20107
9880.29 7.14761
9890.27 7.10976
9900.24 7.07964
9920.19 7.03097
9960.10 6.95339
10000.0 6.88653
10143.9 6.67692
10287.7 6.49073
10575.4 6.15642
10863.1 5.85049
11006.9 5.69940
11078.9 5.61666
11096.8 5.59171
11114.8 5.56002
11123.8 5.53757
11132.8 5.50232
11137.3 5.47238
11141.8 5.41962
11144.0 5.37220
11146.3 5.28864
11147.4 5.21711
11148.5 5.10686
11149.1 5.03271
11149.7 4.96952
11149.9 4.98989
11150.2 5.18090
11150.4 5.47017
11150.5 6.10987
11150.6 7.60686
11150.8 11.4288
11150.9 17.8732
11151.0 23.9909
11151.1 23.0966
11151.2 18.1203
11151.4 14.0838
11151.5 11.6829
11151.7 9.16224
11152.0 8.01679
11152.2 7.41278
11152.7 6.77152
11153.2 6.45101
11154.2 6.13489
11155.2 5.98307
11157.1 5.83402
11159.1 5.76068
11163.0 5.68701
11167.0 5.64894
11174.8 5.60732
11182.7 5.58274
11198.5 5.55036
11214.2 5.52629
11245.7 5.48635
11277.2 5.45043
11403.1 5.31555
11654.9 5.04191
11906.8 4.73118
11969.7 4.63951
12032.7 4.53280
12064.2 4.46665
12079.9 4.42650
12095.6 4.37732
12111.4 4.31064
12119.3 4.26457
12127.1 4.20204
12135.0 4.10782
12138.9 4.03790
12142.9 3.93956
12146.8 3.78794
12148.8 3.67599
12150.7 3.52264
12152.7 3.29873
12153.7 3.14562
12154.7 2.95870
12155.7 2.74067
12156.6 2.59929
12157.1 2.74166
12157.6 3.53046
12157.9 4.67212
12158.1 7.02293
12158.2 9.33912
12158.4 12.6611
12158.5 17.8170
12158.6 25.8171
12158.7 35.4466
12158.8 47.7855
12159.0 69.9715
12159.1 71.2506
12159.2 65.4853
12159.4 47.8729
12159.5 37.8576
12159.7 31.0575
12159.9 22.4454
12160.2 17.4372
12160.5 14.4997
12160.7 12.4948
12161.0 11.1510
12161.5 9.41649
12162.0 8.34546
12162.6 7.64893
12163.6 6.78147
12164.7 6.27246
12165.7 5.93954
12167.8 5.53183
12169.9 5.29100
12172.0 5.13306
12176.2 4.93656
12180.4 4.81772
12184.6 4.73735
12193.0 4.63273
12201.5 4.56510
12209.9 4.51566
12226.7 4.44361
12243.5 4.38903
12260.3 4.34284
12294.0 4.26205
12428.5 3.96585
12563.1 3.62925
12697.6 3.19899
12832.2 2.60347
12899.4 2.20647
12966.7 1.71582
13034.0 1.12636
13067.6 0.824338
13101.3 0.599696
13118.1 0.577174
13134.9 0.690829
13143.3 0.833856
13151.7 1.06514
13160.1 1.42055
13168.5 1.95253
13176.9 2.73924
13185.4 3.89933
13193.8 5.61679
13202.2 8.18264
13210.6 12.0648
13219.0 18.0198
13227.4 27.2454
13235.8 41.4452
13250.4 82.0231
13265.0 122.745
13279.6 115.656
13294.2 85.0579
13296.5 80.6906
13297.0 79.6687
13297.6 78.7647
13297.9 78.4418
13298.2 78.4053
13298.5 79.2399
13298.6 80.6257
13298.7 83.7266
13298.9 88.8562
13299.0 93.4665
13299.1 91.1003
13299.3 85.9684
13299.4 83.1349
13299.5 80.9829
13299.7 78.4283
13299.9 76.9954
13300.1 76.0459
13300.5 74.7473
13300.8 73.8006
13301.6 72.2049
13302.4 70.8122
13305.6 65.8616
13312.0 57.5394
13324.7 45.2836
13337.4 36.9982
13350.1 31.1954
13375.5 23.8208
13400.9 19.4531
13426.3 16.6178
13451.7 14.6486
13502.4 12.1141
13553.2 10.5600
13604.0 9.50725
13654.8 8.73367
13680.2 8.39867
13686.6 8.31147
13692.9 8.21546
13699.3 8.10619
13700.9 8.09045
13702.4 8.13281
13703.2 8.24647
13704.0 8.60756
13704.4 9.08201
13704.8 10.1146
13705.0 11.1556
13705.2 12.9567
13705.4 16.2853
13705.6 22.5471
13706.0 43.0562
13706.2 39.2371
13706.4 28.8958
13706.5 24.0463
13706.6 20.3971
13706.9 15.9303
13707.1 13.5257
13707.3 12.1596
13707.8 10.6553
13708.3 9.90321
13709.2 9.19010
13710.2 8.86098
13712.0 8.55533
13713.9 8.40890
13717.7 8.25657
13721.4 8.16821
13729.0 8.04936
13736.5 7.95871
13751.5 7.80711
13766.6 7.67380
13796.7 7.43352
13811.7 7.31550
13819.3 7.24298
13823.0 7.18041
13824.9 7.11053
13825.9 7.04199
13826.3 7.03115
13826.6 7.15844
13826.8 8.03391
13827.0 10.5928
13827.2 9.78980
13827.5 8.37982
13827.8 7.90849
13828.3 7.57817
13829.4 7.39409
13831.6 7.29145
13835.9 7.22011
13844.7 7.14393
13862.2 7.02764
13897.1 6.82475
13967.0 6.46838
14001.9 6.30577
14036.9 6.14970
14071.8 5.98849
14080.5 5.93774
14089.3 5.86563
14093.6 5.80709
14098.0 5.70458
14100.2 5.61184
14102.4 5.44711
14103.5 5.30447
14104.6 5.07537
14105.1 4.90810
14105.7 4.72641
14105.9 4.68593
14106.2 4.86025
14106.5 5.95937
14106.6 7.83293
14106.7 12.1839
14106.9 20.2675
