Zn-66(n,tot) ENDF/B-VII.1
Energy(eV) XS(b)
1.00000E-05 35.9743
1.25000E-05 32.6938
1.50000E-05 30.2722
2.00000E-05 26.8730
2.75000E-05 23.6388
3.50000E-05 21.5102
4.25000E-05 19.9736
5.00000E-05 18.7972
6.25000E-05 17.3301
7.50000E-05 16.2471
0.000100000 14.7270
0.000125000 13.6896
0.000150000 12.9238
0.000200000 11.8489
0.000275000 10.8261
0.000350000 10.1530
0.000425000 9.66709
0.000500000 9.29509
0.000625000 8.83115
0.000750000 8.48868
0.00100000 8.00797
0.00125000 7.67992
0.00150000 7.43776
0.00200000 7.09784
0.00275000 6.77441
0.00350000 6.56156
0.00425000 6.40789
0.00500000 6.29025
0.00625000 6.14354
0.00750000 6.03524
0.0100000 5.88323
0.0125000 5.77948
0.0150000 5.70290
0.0200000 5.59541
0.0253000 5.51835
0.0314750 5.45444
0.0376500 5.40698
0.0500000 5.33999
0.0625000 5.29358
0.0750000 5.25932
0.100000 5.21122
0.125000 5.17839
0.150000 5.15414
0.200000 5.12009
0.275000 5.08767
0.350000 5.06630
0.500000 5.03900
0.750000 5.01321
1.00000 4.99773
1.50000 4.97913
2.00000 4.96782
2.75000 4.95675
3.50000 4.94918
5.00000 4.93891
7.50000 4.92805
10.0000 4.92044
15.0000 4.90915
20.0000 4.90018
27.5000 4.88860
35.0000 4.87815
50.0000 4.85885
75.0000 4.82879
100.000 4.79990
150.000 4.74341
200.000 4.68664
261.701 4.60810
277.126 4.58227
292.551 4.54679
300.264 4.51999
304.120 4.50159
307.976 4.47715
309.904 4.46144
311.833 4.44232
313.761 4.41860
315.689 4.38893
316.653 4.37174
317.617 4.35375
318.581 4.33766
319.545 4.33269
320.027 4.34273
320.509 4.37318
320.991 4.44743
321.473 4.62481
321.714 4.79763
321.955 5.08427
322.196 5.58672
322.437 6.54137
322.678 8.59191
322.799 10.5728
322.919 13.9818
323.040 20.4660
323.100 26.0807
323.160 34.7571
323.221 49.0522
323.251 59.7892
323.281 74.3711
323.311 94.7101
323.341 123.513
323.371 165.054
323.401 224.725
323.426 289.859
323.451 365.200
323.500 466.243
323.500 466.266
323.500 466.287
323.501 466.363
323.501 466.424
323.502 466.501
323.503 466.481
323.506 465.768
323.513 461.679
323.525 443.983
323.550 382.219
323.599 246.122
323.636 173.936
323.674 126.847
323.711 95.9748
323.748 75.1530
323.823 50.1659
323.897 36.5077
323.972 28.2869
324.047 22.9639
324.196 16.7089
324.345 13.2948
324.494 11.2183
324.643 9.85280
324.793 8.90198
325.091 7.68867
325.390 6.96445
325.688 6.49192
325.986 6.16366
326.583 5.74338
327.180 5.48980
327.777 5.32216
328.374 5.20398
329.568 5.04949
330.762 4.95361
331.955 4.88854
333.149 4.84153
335.537 4.77805
337.924 4.73696
342.699 4.68613
347.474 4.65503
352.249 4.63329
361.799 4.60331
380.900 4.56501
400.000 4.53723
411.799 4.52233
455.900 4.47338
500.000 4.42938
600.000 4.33704
700.000 4.25029
750.000 4.20841
875.000 4.10727
1000.00 4.01055
1500.00 3.65791
2000.00 3.34368
2778.96 2.88388
3168.43 2.63310
3363.17 2.48192
3460.54 2.39158
3509.23 2.34041
3533.57 2.31303
3545.74 2.29961
3551.83 2.29612
3554.87 2.30743
3555.63 2.32158
3556.39 2.36183
3556.77 2.41598
3557.15 2.55798
3557.34 2.73552
3557.53 3.16141
3557.63 3.63886
3557.72 4.62475
3557.77 5.56628
3557.82 7.11202
3557.87 9.95073
3557.91 15.1404
3557.96 22.8565
3558.00 28.0020
3558.04 22.8599
3558.09 15.1447
3558.12 11.7833
3558.14 9.42156
3558.20 6.59938
3558.25 5.11974
3558.30 4.27262
3558.41 3.40589
3558.52 2.99951
3558.74 2.64548
3558.95 2.50050
3559.38 2.38551
3559.82 2.34167
3561.54 2.29497
3564.99 2.27879
3571.90 2.26695
3585.71 2.24814
3613.33 2.20972
3668.57 2.12249
3723.81 2.01527
3779.04 1.87677
3834.28 1.68559
3861.90 1.55775
3889.52 1.39629
3917.14 1.18530
3944.76 0.899622
3958.57 0.718329
3972.38 0.507917
3986.19 0.279512
3993.10 0.175284
3996.55 0.133864
4000.00 0.106265
4002.71 0.0996880
4005.41 0.112893
4008.12 0.154774
4010.83 0.238492
4012.18 0.301941
4013.53 0.383978
4016.24 0.621865
4018.94 1.00116
4021.65 1.60268
4024.36 2.56617
4027.06 4.14415
4029.77 6.82870
4032.48 11.6605
4033.83 15.5483
4035.18 21.1084
4036.54 29.3259
4037.89 41.9593
4039.24 62.3370
4040.59 97.1318
4041.95 160.249
4043.30 278.727
4044.65 475.791
4046.00 633.114
4047.35 538.022
4048.70 356.619
4050.01 234.927
4051.33 162.751
4052.64 119.124
4053.95 91.3649
4055.27 72.7518
4056.58 59.7149
4059.21 43.0859
4061.83 33.2253
4064.46 26.8604
4069.71 19.3208
4074.97 15.1206
4080.22 12.4968
4085.47 10.7239
4090.72 9.45575
4101.23 7.77711
4111.74 6.72546
4122.24 6.00924
4132.75 5.49183
4153.76 4.79601
4174.77 4.35029
4195.78 4.04009
4216.79 3.81126
4258.82 3.49452
4300.84 3.28358
4321.85 3.20191
4342.86 3.13177
4353.37 3.10077
4363.88 3.07369
4369.13 3.06355
4374.38 3.06170
4377.01 3.07171
4379.63 3.11247
4380.95 3.17436
4381.60 3.23716
4382.26 3.35151
4382.92 3.59233
4383.25 3.82586
4383.57 4.23782
4383.90 5.07125
4384.07 5.84571
4384.23 7.15245
4384.39 9.61036
4384.48 11.7372
4384.56 15.0557
4384.64 20.6127
4384.72 30.8168
4384.76 39.3086
4384.80 51.8470
4384.85 70.8380
4384.89 99.6302
4384.94 157.631
4385.00 196.318
4385.06 157.671
4385.11 99.6815
4385.15 72.6188
4385.19 54.1974
4385.27 33.2137
4385.34 22.5604
4385.42 16.5864
4385.49 12.9477
4385.57 10.5824
4385.72 7.81093
4385.87 6.31741
4386.02 5.42411
4386.32 4.45605
4386.62 3.96982
4386.92 3.69323
4387.52 3.40518
4388.12 3.26546
4388.72 3.18713
4389.92 3.10598
4392.32 3.04288
4394.72 3.01668
4399.53 2.99062
4404.33 2.97441
4423.55 2.92792
4442.76 2.88905
4461.98 2.85372
4538.84 2.73557
4692.56 2.56378
5000.00 2.32903
5101.96 2.26579
5152.94 2.23577
5178.43 2.22116
5191.17 2.21413
5197.54 2.21138
5200.73 2.21285
5202.32 2.22416
5203.12 2.26669
5203.52 2.40019
5203.72 2.73334
5203.82 3.32724
5203.87 4.02627
5203.91 5.35679
5203.96 7.24398
5204.00 8.50044
5204.04 7.24169
5204.09 5.35023
5204.15 3.70281
5204.22 3.02761
5204.36 2.55133
5204.63 2.32184
5205.17 2.23958
5206.25 2.21437
5208.42 2.20643
5212.76 2.20226
5221.43 2.19699
5238.77 2.18732
5273.45 2.16879
5308.14 2.15370
5316.81 2.15305
5325.48 2.16000
5329.82 2.17394
5334.15 2.21775
5336.32 2.28022
5337.40 2.34265
5338.49 2.45591
5339.57 2.69366
5340.11 2.92475
5340.66 3.33345
5341.20 4.16043
5341.47 4.93408
5341.74 6.24620
5342.01 8.73378
5342.15 10.9141
5342.28 14.3197
5342.42 20.1373
5342.55 30.9367
5342.62 40.1576
5342.69 53.7894
5342.76 75.1832
5342.82 107.886
5342.91 171.409
5343.00 213.806
5343.09 171.512
5343.18 108.017
5343.25 74.1482
5343.32 52.6746
5343.39 38.9755
5343.46 30.0508
5343.60 19.4965
5343.74 13.8842
5343.87 10.5839
5344.01 8.49075
5344.29 6.09554
5344.57 4.83343
5344.85 4.08940
5345.40 3.29363
5345.96 2.89970
5346.52 2.67640
5347.63 2.44561
5348.74 2.33467
5349.85 2.27278
5352.08 2.20936
5356.52 2.16140
5360.97 2.14270
5369.87 2.12608
5378.76 2.11712
5414.35 2.09422
5485.52 2.05639
5627.86 1.98465
5912.55 1.84690
6197.23 1.71282
6339.57 1.64627
6410.74 1.61303
6446.33 1.59642
6464.12 1.58821
6473.02 1.58452
6477.47 1.58433
6479.69 1.59060
6480.80 1.61700
6481.36 1.70683
6481.64 1.96032
6481.77 2.49525
6481.84 3.26575
6481.91 5.16707
6482.00 8.76064
6482.09 5.17327
6482.14 3.50606
6482.20 2.71348
6482.31 2.09070
6482.54 1.76074
6482.99 1.63398
6483.90 1.59401
6485.71 1.58203
6489.33 1.57736
6496.57 1.57319
6511.06 1.56621
6540.03 1.55261
6597.96 1.52559
6655.90 1.49953
6684.87 1.49109
6692.11 1.49322
6699.36 1.50575
6702.98 1.52638
6706.60 1.58790
6708.41 1.67412
6709.31 1.75974
6710.22 1.91444
6711.12 2.23829
6711.58 2.55207
6712.03 3.10360
6712.48 4.21557
6712.71 5.24711
6712.93 6.98351
6713.16 10.2579
6713.27 13.0734
6713.39 17.4514
6713.50 24.7467
6713.61 38.0433
6713.67 49.1414
6713.73 65.1220
6713.78 89.5440
6713.84 125.538
6713.92 200.547
6714.00 249.788
6714.08 199.691
6714.16 125.703
6714.23 82.7275
6714.30 56.7736
6714.37 40.8798
6714.44 30.7249
6714.58 19.2196
6714.72 13.3296
6714.86 9.90772
6715.00 7.78203
6715.28 5.36976
6715.56 4.11047
6715.84 3.37705
6716.40 2.59776
6716.95 2.21378
6717.51 1.99742
6718.63 1.77447
6719.75 1.66753
6720.86 1.60804
6723.09 1.54717
6727.56 1.50128
6732.03 1.48348
6740.96 1.46780
6749.89 1.45947
6785.62 1.43842
6857.08 1.40332
7000.00 1.33450
7487.48 1.09357
7974.96 0.837336
8462.44 0.561665
8706.18 0.417197
8828.05 0.344332
8888.98 0.308080
8919.45 0.290093
8934.68 0.281245
8942.30 0.277257
8946.11 0.276914
8948.01 0.282975
8948.96 0.308244
8949.44 0.391731
8949.68 0.615583
8949.80 1.05322
8949.91 2.89635
8950.00 5.51834
8950.09 2.89327
8950.20 1.12189
8950.31 0.656131
8950.52 0.408586
8950.96 0.312793
8951.84 0.282372
8953.60 0.272967
8957.11 0.268697
8964.13 0.264026
8978.18 0.255704
9006.26 0.239432
9062.44 0.207588
9118.62 0.177548
9146.71 0.166909
9160.75 0.177908
9164.27 0.195215
9167.78 0.247474
9169.53 0.320727
9171.29 0.523483
9172.17 0.793385
9172.60 1.05193
9173.04 1.50174
9173.48 2.38852
9173.70 3.19724
9173.92 4.52080
9174.14 6.92526
9174.25 8.92407
9174.36 11.8836
9174.47 16.5931
9174.58 24.4355
9174.69 38.7041
9174.80 65.3964
9174.90 104.512
9175.00 130.817
9175.10 104.639
9175.20 65.5564
9175.28 44.8012
9175.36 31.6485
9175.44 23.2025
9175.51 17.6055
9175.67 10.9983
9175.83 7.50506
9175.98 5.43613
9176.14 4.13199
9176.45 2.63321
9176.77 1.84308
9177.08 1.37707
9177.70 0.878834
9178.96 0.490993
9180.21 0.345662
9182.71 0.236175
9185.21 0.195539
9190.22 0.164016
9195.22 0.151037
9215.24 0.130647
9255.29 0.108904
9335.37 0.0749213
9415.45 0.0503439
9455.49 0.0427475
9495.54 0.0392646
9535.58 0.0408920
9575.62 0.0489039
9615.66 0.0649413
9655.70 0.0911391
9695.74 0.130319
9735.79 0.186315
9775.83 0.265286
9795.85 0.321197
9805.86 0.378165
9808.36 0.416209
9810.86 0.510894
9812.12 0.634800
9813.37 0.969916
9813.99 1.41411
9814.31 1.84043
9814.62 2.58188
9814.93 4.05720
9815.09 5.41500
9815.24 7.65288
9815.40 11.7819
9815.48 15.2381
9815.56 20.4744
9815.63 28.8861
9815.71 43.4106
9815.79 70.6357
9815.87 124.514
9815.93 199.124
9816.00 248.962
9816.07 199.356
9816.13 124.806
9816.18 89.3497
9816.22 65.4259
9816.27 49.3087
9816.31 38.2138
9816.40 24.6502
9816.49 17.1356
9816.58 12.5958
9816.67 9.66192
9816.85 6.25688
9817.03 4.41882
9817.21 3.32863
9817.57 2.14622
9817.93 1.55557
9818.29 1.21918
9819.01 0.870819
9820.44 0.611822
9821.88 0.520276
9824.75 0.458719
9827.62 0.442689
9839.12 0.457475
9850.61 0.496513
9862.10 0.542773
9908.07 0.781921
9954.03 1.12675
10000.0 1.62814
10045.5 2.36357
10091.0 3.48434
10136.5 5.26306
10182.0 8.24496
10227.5 13.6313
10250.3 18.0232
10273.0 24.4135
10295.8 34.0562
10318.5 49.1965
10341.3 73.8544
10364.0 114.445
10392.0 191.682
10420.0 250.050
10448.0 208.945
10476.0 136.449
10501.6 90.7678
10527.2 63.0150
10552.9 45.9285
10578.5 34.9270
10629.7 22.2611
10680.9 15.5640
10732.2 11.5862
10783.4 9.01694
10834.6 7.24923
10860.3 6.56442
10873.1 6.26979
10879.5 6.17282
10881.1 6.18672
10882.7 6.28947
10883.5 6.45855
10884.3 6.94397
10884.7 7.58641
10884.9 8.19197
10885.1 9.22319
10885.3 11.1850
10885.4 12.9006
10885.5 15.6051
10885.6 20.1991
10885.7 28.8163
10885.7 36.1435
10885.8 47.1890
10885.8 64.3617
10885.9 91.1887
10885.9 146.595
10886.0 176.673
10886.1 138.410
10886.1 91.4465
10886.2 69.0783
10886.2 53.3730
10886.3 36.3332
10886.4 25.7358
10886.4 20.3271
10886.5 16.4346
10886.6 14.1772
10886.7 11.3879
10886.9 9.71611
10887.0 8.76176
10887.3 7.65653
10887.9 6.74966
10888.5 6.40093
10889.6 6.11777
10890.8 5.99890
10893.1 5.87952
10895.5 5.80627
10904.8 5.59549
10923.5 5.24474
10960.8 4.64479
11035.4 3.71557
11184.7 2.50135
11334.0 1.74050
11483.3 1.21479
11632.6 0.827929
11781.9 0.533419
11931.2 0.308782
12080.5 0.145393
12155.2 0.0867367
12229.8 0.0446492
12267.2 0.0303151
12304.5 0.0208094
12341.8 0.0164496
12379.1 0.0176134
12416.5 0.0247348
12453.8 0.0383079
12491.1 0.0589104
12528.4 0.0871824
12603.1 0.169837
12677.7 0.293550
12752.4 0.467792
12827.0 0.704933
12901.7 1.02124
12976.3 1.43826
13125.6 2.70026
13200.3 3.63810
13237.6 4.21270
13256.3 4.53145
13265.6 4.69982
13270.3 4.78811
13272.6 4.83946
13273.8 4.89013
13274.3 4.99647
13274.6 5.27147
13274.8 5.88607
13274.8 6.72457
13274.9 8.93966
13275.0 13.0326
13275.1 8.94307
13275.2 6.92186
13275.2 5.97642
13275.4 5.32916
13275.6 5.03844
13276.2 4.94155
13277.3 4.92968
13279.4 4.96240
13283.8 5.04447
13292.4 5.21693
13309.8 5.58033
13344.5 6.38433
13379.2 7.30487
13396.5 7.81546
13405.2 8.08789
13409.6 8.24165
13411.7 8.37346
13412.8 8.63114
13413.4 9.35833
13413.5 9.97454
13413.6 11.1947
13413.8 14.7999
13413.8 19.4234
13413.9 28.1452
13414.0 40.7620
13414.0 48.0075
13414.1 40.8225
13414.1 28.2263
13414.2 19.5011
13414.2 15.3451
13414.4 11.7270
13414.5 10.3144
13414.6 9.63612
13414.8 9.02240
13415.1 8.78511
13416.1 8.54032
13418.0 8.52585
13421.9 8.63494
13429.7 8.89637
13445.4 9.45542
13476.6 10.6905
13539.1 13.7074
13664.1 22.9139
13789.0 39.4435
13914.0 69.6444
14057.0 128.771
14200.0 182.408
14343.0 163.434
14486.0 113.936
14629.2 77.6986
14772.4 55.5672
14915.7 41.8679
15058.9 32.9450
15202.1 26.8218
15345.3 22.4223
15488.5 19.1354
15560.2 17.7900
15596.0 17.1814
15604.9 17.0397
15613.9 16.9121
15618.3 16.8658
15622.8 16.8684
15625.1 16.9356
15627.3 17.1858
15628.4 17.5510
15629.0 17.9113
15629.5 18.5492
15630.1 19.8287
15630.4 21.0085
15630.7 22.9729
15630.9 26.5871
15631.1 29.6396
15631.2 34.2820
15631.4 41.7751
15631.5 54.7914
15631.6 79.3686
15631.8 125.935
15631.9 190.251
15632.0 235.799
15632.1 190.664
15632.2 126.444
15632.4 82.3165
15632.5 59.1689
15632.6 45.9110
15632.7 37.8362
15632.8 32.6239
15633.0 29.0893
15633.2 24.7674
15633.5 22.2621
15633.7 20.7951
15634.2 19.1554
15634.7 18.2944
15635.1 17.8034
15636.1 17.2764
15638.0 16.8502
15640.0 16.6745
15643.8 16.5057
15647.7 16.4064
15655.5 16.2591
15663.2 16.1319
15694.2 15.6690
15756.1 14.8231
15818.0 14.0521
15848.9 13.6909
15864.4 13.5165
15872.2 13.4334
15876.0 13.4035
15878.0 13.4310
15878.9 13.5956
15879.4 14.1318
15879.7 15.4665
15879.8 17.8079
15879.8 20.5462
15879.9 27.1284
15880.0 35.4377
15880.0 40.8207
15880.1 35.4720
15880.1 27.0355
15880.2 19.9893
15880.3 17.2442
15880.4 15.0927
15880.7 13.9587
15881.2 13.5159
15882.4 13.3693
15884.6 13.3065
15889.2 13.2471
15898.2 13.1469
15916.3 12.9546
15952.5 12.5841
16024.8 11.8906
16169.5 10.6621
16458.9 8.65262
16748.3 6.92150
16820.7 6.44696
16893.0 5.85358
16929.2 5.43493
16947.3 5.15479
16965.4 4.78537
16983.5 4.25058
16992.5 3.87126
17001.6 3.36296
17010.6 2.64304
17015.1 2.16464
17019.7 1.58563
17024.2 0.933554
17026.4 0.645603
17028.7 0.523519
17029.8 0.618808
17031.0 0.929204
17032.1 1.62609
17032.7 2.21863
17033.2 3.03916
17033.8 4.21354
17034.4 5.83860
17034.9 8.18240
17035.5 11.4718
17036.1 16.3052
17036.6 23.2256
17037.2 33.5574
17037.7 48.3609
17038.9 96.8810
17040.0 148.539
17040.6 153.684
17041.1 143.054
17042.3 106.014
17043.1 82.6036
17044.0 65.7854
17044.8 53.9314
17045.7 45.5201
17047.4 34.5065
17049.0 27.9574
17050.7 23.6726
17052.4 20.7198
17055.8 16.9294
17059.2 14.6350
17062.6 13.1084
17069.4 11.2153
17076.2 10.0866
17082.9 9.33764
17096.5 8.39630
17110.0 7.82024
17123.6 7.42361
17150.7 6.89607
17177.8 6.54603
17204.9 6.29440
17218.4 6.20503
17225.2 6.17697
17232.0 6.17242
17238.8 6.22283
17242.2 6.29719
17245.5 6.44919
17247.2 6.58317
17248.9 6.78793
17250.6 7.12189
17252.3 7.70276
17254.0 8.84954
17254.9 9.88241
17255.7 11.5325
17256.6 14.4728
17257.4 20.2231
17257.8 25.5290
17258.2 33.8146
17258.7 47.6422
17259.1 71.1511
17259.5 110.461
17260.0 136.781
17260.5 110.752
17260.9 71.5149
17261.3 51.0986
17261.6 37.9442
17262.0 29.4354
17262.3 23.7646
17263.0 17.0603
17263.7 13.5030
17264.4 11.3601
17265.1 10.0112
17266.5 8.44056
17267.9 7.60364
17269.3 7.10443
17272.1 6.55988
17274.8 6.28024
17277.6 6.11378
17283.2 5.92499
17288.7 5.81687
17294.3 5.74254
17305.4 5.63637
17316.6 5.55450
17327.7 5.48359
17338.8 5.41902
17344.4 5.38990
17347.1 5.38203
17348.5 5.40173
17349.2 5.49334
17349.6 5.78282
17349.7 6.44190
17349.8 7.58622
17349.9 10.6305
17350.0 15.9049
17350.1 10.6297
17350.2 6.93083
17350.3 6.05502
17350.6 5.59082
17351.1 5.42173
17352.1 5.36479
17354.0 5.34005
17358.0 5.31555
17365.9 5.27379
17381.7 5.19455
17413.4 5.04431
17476.6 4.76439
17603.2 4.25021
17856.3 3.29883
18109.4 2.37113
18362.5 1.43203
18615.7 0.527411
18678.9 0.334793
18742.2 0.176316
18773.9 0.116217
18805.5 0.0736680
18821.3 0.0604421
18837.1 0.0535226
18853.0 0.0537352
18868.8 0.0620106
18884.6 0.0794281
18900.4 0.107206
18916.2 0.146738
18932.1 0.199626
18963.7 0.353082
18995.3 0.585875
19027.0 0.922476
19058.6 1.39596
19090.3 2.05148
19121.9 2.95148
19153.5 4.18323
19185.2 5.87018
19216.8 8.18887
19248.5 11.3937
19280.1 15.8522
19311.7 22.0902
19343.4 30.8356
19375.0 43.0066
19447.5 87.4913
19520.0 134.766
19556.3 139.432
19592.5 129.642
19665.0 95.7950
19748.8 65.4719
19832.5 47.4440
19916.3 36.5501
20000.0 29.5430
20090.7 24.4248
20181.5 20.8319
20362.9 16.1587
20544.4 13.2551
20635.1 12.1743
20680.5 11.6986
20703.2 11.4753
20714.5 11.3697
20720.2 11.3286
20723.0 11.3496
20724.5 11.5086
20725.2 12.0679
20725.5 13.5656
20725.7 16.6536
20725.8 20.8660
20725.9 30.5275
20725.9 42.1877
20726.0 49.7891
20726.1 42.1812
20726.1 30.5185
20726.2 20.8562
20726.3 16.6433
20726.5 13.6464
20726.8 12.0698
20727.5 11.4886
20728.9 11.2976
20731.7 11.2222
20737.2 11.1582
20748.3 11.0544
20770.4 10.8584
20792.6 10.6753
20803.7 10.6125
20806.4 10.6210
20809.2 10.6872
20810.6 10.7976
20812.0 11.1124
20812.7 11.5259
20813.4 12.5632
20813.7 13.8051
20814.1 16.4382
20814.2 19.2525
20814.4 24.0650
20814.6 33.5481
20814.7 42.3217
20814.7 53.6848
20814.9 79.7628
20815.0 97.2790
20815.1 80.0742
20815.3 54.0731
20815.4 39.3545
20815.5 30.3316
20815.6 24.7367
20815.7 21.3979
20815.9 17.2657
20816.1 15.0753
20816.5 12.9714
20817.0 12.0346
20817.8 11.2384
20818.6 10.9219
20820.3 10.6649
20822.0 10.5596
20828.8 10.4104
20842.3 10.2771
20869.3 10.0622
20923.3 9.66768
21031.4 8.95901
21247.6 7.77159
21463.7 6.79142
21517.8 6.57106
21571.8 6.36314
21598.8 6.26800
21625.9 6.18838
21639.4 6.16295
21652.9 6.16208
21659.6 6.18109
21666.4 6.22661
21673.1 6.32590
21676.5 6.42473
21678.2 6.54105
21679.1 6.78460
21679.5 7.43610
21679.7 8.91691
21679.8 11.4670
21679.9 18.7459
21680.0 26.5593
21680.0 31.0631
21680.1 26.6383
21680.1 18.8521
21680.2 11.9631
21680.3 9.47047
21680.5 7.76526
21680.8 6.97245
21681.6 6.73258
21683.1 6.74248
21686.0 6.98036
21689.0 7.40153
21691.9 8.14944
21694.8 9.64971
21696.3 11.0319
21697.8 13.3034
21699.3 17.4701
21700.0 20.9582
21700.7 26.1267
21701.5 34.4445
21702.2 48.3549
21703.0 74.0906
21703.7 122.439
21704.3 192.560
21705.0 239.526
21705.7 193.313
21706.3 123.389
21707.0 77.8780
21707.7 52.5404
21708.3 38.0044
21709.0 29.1484
21709.7 23.4324
21710.3 19.5567
21711.7 14.8444
21713.0 12.1715
21714.4 10.5271
21717.0 8.69917
21719.7 7.75128
21722.4 7.19868
21725.1 6.84441
21727.7 6.60386
21733.1 6.30186
21738.4 6.12267
21749.1 5.91862
21759.8 5.80014
21770.5 5.71679
21791.9 5.59381
21813.3 5.49517
21834.7 5.40675
21877.5 5.24339
22048.7 4.64351
22391.1 3.50096
22733.5 2.34399
22904.7 1.74795
22990.3 1.44796
23033.1 1.29870
23054.5 1.22472
23065.2 1.18893
23070.6 1.17544
23073.2 1.18564
23074.6 1.25316
23075.2 1.49471
23075.6 2.16733
23075.7 3.64273
23075.8 5.61509
23075.9 11.1137
