Zn-70(n,g) ENDF/B-VII.1
Energy(eV) XS(b)
1.00000E-05 4.61278
1.25000E-05 4.12579
1.50000E-05 3.76632
2.00000E-05 3.26173
2.75000E-05 2.78161
3.50000E-05 2.46563
4.25000E-05 2.23753
5.00000E-05 2.06290
6.25000E-05 1.84511
7.50000E-05 1.68435
0.000100000 1.45869
0.000125000 1.30469
0.000150000 1.19101
0.000200000 1.03145
0.000275000 0.879622
0.000350000 0.779702
0.000425000 0.707568
0.000500000 0.652345
0.000625000 0.583475
0.000750000 0.532637
0.00100000 0.461277
0.00125000 0.412579
0.00150000 0.376631
0.00200000 0.326172
0.00275000 0.278160
0.00350000 0.246563
0.00425000 0.223752
0.00500000 0.206289
0.00625000 0.184510
0.00750000 0.168434
0.0100000 0.145868
0.0125000 0.130468
0.0150000 0.119100
0.0200000 0.103143
0.0253000 0.0917050
0.0314750 0.0822182
0.0376500 0.0751737
0.0500000 0.0652317
0.0625000 0.0583444
0.0750000 0.0532603
0.100000 0.0461238
0.125000 0.0412535
0.150000 0.0376583
0.200000 0.0326116
0.275000 0.0278095
0.350000 0.0246489
0.500000 0.0206200
0.750000 0.0168326
1.00000 0.0145743
1.50000 0.0118947
2.00000 0.0102966
2.75000 0.00877531
3.50000 0.00777343
5.00000 0.00649530
7.50000 0.00529195
10.0000 0.00457310
15.0000 0.00371789
20.0000 0.00320600
27.5000 0.00271660
35.0000 0.00239267
50.0000 0.00197658
75.0000 0.00158041
100.000 0.00134067
150.000 0.00105115
200.000 0.000875041
275.000 0.000704580
350.000 0.000590921
500.000 0.000445211
750.000 0.000310077
1000.00 0.000233016
1500.00 0.000149522
2000.00 0.000106652
2750.00 7.28959E-05
3500.00 5.53913E-05
5000.00 3.98329E-05
6250.00 3.57836E-05
7500.00 3.67351E-05
8750.00 4.46085E-05
9375.00 5.53434E-05
9687.50 6.59447E-05
10000.0 8.68932E-05
10199.9 0.000116083
10399.7 0.000191481
10599.6 0.000571711
10649.6 0.000959020
10699.5 0.00205711
10724.5 0.00358533
10737.0 0.00511407
10749.5 0.00791257
10762.0 0.0139045
10768.2 0.0198777
10774.5 0.0307330
10777.6 0.0398911
10780.7 0.0538039
10783.8 0.0765161
10787.0 0.117371
10788.5 0.151573
10790.1 0.202814
10791.6 0.285182
10793.2 0.430043
10794.0 0.547680
10794.8 0.720887
10795.5 0.990835
10796.3 1.44488
10797.1 2.29502
10797.5 3.02723
10797.9 4.16425
10798.3 6.05547
10798.7 9.49343
10798.9 12.4128
10799.1 16.4669
10799.3 22.8593
10799.4 31.9341
10799.7 51.1046
10800.0 63.8865
10800.3 51.1005
10800.6 31.9316
10800.9 18.4055
10801.2 11.5767
10801.5 7.81089
10801.8 5.57819
10802.1 4.16477
10802.4 3.22015
10803.1 2.08247
10803.7 1.45301
10804.3 1.06995
10805.5 0.648312
10806.8 0.434091
10808.0 0.310740
10809.3 0.233332
10810.5 0.181607
10813.0 0.118958
10815.5 0.0839158
10817.9 0.0623592
10820.4 0.0481625
10825.4 0.0312192
10830.3 0.0218793
10840.3 0.0124716
10850.2 0.00806212
10860.1 0.00565226
10879.9 0.00324055
10919.6 0.00150640
10959.3 0.000898130
11118.1 0.000323323
11197.5 0.000264030
11276.8 0.000240233
11435.6 0.000244907
11594.4 0.000303530
11673.7 0.000361910
11753.1 0.000457017
11832.5 0.000627795
11872.2 0.000773978
11911.9 0.00101027
11951.6 0.00145605
11991.3 0.00257601
12011.1 0.00403546
12030.9 0.00803260
12040.9 0.0134931
12045.8 0.0189114
12050.8 0.0287659
12055.7 0.0496919
12058.2 0.0703646
12060.7 0.107674
12061.9 0.138777
12063.2 0.185772
12064.4 0.261651
12065.7 0.395975
12066.3 0.505778
12066.9 0.668498
12067.5 0.924335
12068.1 1.36009
12068.8 2.19190
12069.1 2.92311
12069.4 4.08292
12069.7 6.07167
12070.0 9.85786
12070.2 13.2568
12070.3 18.1300
12070.5 26.3777
12070.6 38.6839
12070.8 61.4182
12071.0 76.3798
12071.2 60.1427
12071.4 37.6903
12071.5 27.0386
12071.7 19.8326
12071.8 14.9599
12071.9 11.5937
12072.2 7.46139
12072.4 5.16194
12072.7 3.76853
12073.0 2.86611
12073.5 1.81248
12074.0 1.24670
12074.5 0.909108
12075.0 0.691952
12075.6 0.544185
12076.6 0.361867
12077.6 0.257997
12078.7 0.193293
12079.7 0.150291
12081.8 0.0984973
12083.9 0.0696921
12088.0 0.0405094
12092.2 0.0267206
12096.3 0.0191646
12104.7 0.0116334
12137.9 0.00469359
12154.5 0.00416276
12171.2 0.00415946
12204.4 0.00523204
12221.0 0.00640493
12237.7 0.00828391
12254.3 0.0114088
12270.9 0.0170259
12279.2 0.0216613
12287.5 0.0285604
12295.8 0.0394736
12300.0 0.0474878
12304.2 0.0582077
12308.3 0.0730730
12310.4 0.0827388
12312.5 0.0944529
12314.6 0.108831
12316.6 0.126736
12318.7 0.149406
12320.8 0.178499
12322.9 0.217043
12324.9 0.269228
12327.0 0.342078
12329.1 0.446902
12331.2 0.605758
12333.3 0.857181
12335.3 1.27367
12337.4 1.97013
12339.7 3.13733
12342.0 3.90884
12344.3 3.13582
12346.6 1.96866
12349.3 1.12058
12352.0 0.689993
12354.7 0.458799
12357.4 0.324342
12360.1 0.240151
12362.8 0.184706
12368.2 0.118614
12373.6 0.0823644
12379.0 0.0605048
12389.8 0.0365789
12400.7 0.0245013
12411.5 0.0175763
12422.3 0.0132440
12433.1 0.0103563
12454.7 0.00686938
12476.3 0.00492771
12497.9 0.00374013
12519.6 0.00296453
12562.8 0.00205763
12606.0 0.00158598
12649.3 0.00133507
12692.5 0.00122032
12779.0 0.00131607
12822.2 0.00158018
12865.5 0.00214289
12887.1 0.00264268
12908.7 0.00342300
12930.3 0.00472262
12952.0 0.00710701
12962.8 0.00912052
12973.6 0.0121975
12984.4 0.0172398
12995.2 0.0263562
13000.6 0.0339754
13006.0 0.0454803
13011.4 0.0641215
13016.8 0.0971317
13019.5 0.124283
13022.2 0.164470
13024.9 0.227816
13027.6 0.336105
13030.3 0.544006
13031.7 0.727886
13033.0 1.02146
13034.4 1.52974
13035.7 2.51234
13036.4 3.38265
13037.1 4.71679
13037.8 6.91144
13038.4 10.4553
13039.2 16.7043
13040.0 20.8583
13040.8 16.6164
13041.6 10.3872
13042.2 6.95159
13042.9 4.84327
13043.5 3.51199
13044.2 2.64098
13045.5 1.62481
13046.7 1.09507
13048.0 0.783440
13049.3 0.588413
13051.9 0.365361
13054.4 0.248441
13057.0 0.179764
13059.6 0.136067
13062.2 0.106573
13067.3 0.0704814
13072.4 0.0500882
13077.6 0.0374567
13082.7 0.0291104
13093.0 0.0190799
13103.3 0.0135291
13113.5 0.0101434
13123.8 0.00793333
13144.4 0.00532791
13164.9 0.00393448
13185.5 0.00313500
13206.0 0.00267777
13247.1 0.00244574
13288.2 0.00336976
13308.8 0.00505635
13329.3 0.0100874
13339.6 0.0171416
13344.8 0.0241776
13349.9 0.0369429
13352.5 0.0476726
13355.0 0.0639874
13357.6 0.0905524
13360.2 0.138149
13361.5 0.177712
13362.7 0.236574
13364.0 0.331382
13365.3 0.495351
13366.6 0.822687
13367.2 1.11979
13367.9 1.61027
13368.5 2.50282
13368.8 3.24904
13369.2 4.37316
13369.5 6.16503
13369.8 9.22516
13370.1 14.8694
13370.4 25.7965
13370.7 41.2798
13371.0 51.6029
13371.3 41.2772
13371.6 25.7948
13371.8 15.8727
13372.1 10.3171
13372.4 7.11537
13372.7 5.21449
13373.0 3.93057
13373.2 3.08649
13373.8 2.02609
13374.3 1.41931
13374.9 1.05326
13376.0 0.644780
13377.1 0.433164
13378.2 0.311682
13379.3 0.234962
13380.4 0.183457
13382.6 0.120570
13384.8 0.0853021
13387.0 0.0635671
13389.2 0.0492867
13393.6 0.0321283
13398.1 0.0226725
13406.9 0.0131185
13415.7 0.00862174
13424.5 0.00615397
13442.2 0.00366550
13459.8 0.00249216
13477.5 0.00184217
13512.8 0.00117568
13548.1 0.000851243
13583.4 0.000665000
13654.0 0.000464271
13724.6 0.000360147
13795.2 0.000297416
13936.4 0.000227095
14218.8 0.000169193
14501.2 0.000149991
15066.0 0.000154523
15630.8 0.000199012
15913.2 0.000242173
16195.6 0.000310033
16478.0 0.000422032
16760.4 0.000623315
16901.6 0.000789603
17042.8 0.00103827
17184.0 0.00143402
17325.2 0.00212014
17395.8 0.00266955
17466.4 0.00346774
17484.1 0.00372385
17501.7 0.00400959
17519.4 0.00432968
17537.0 0.00468980
17554.7 0.00509688
17572.3 0.00555937
17590.0 0.00608767
17607.6 0.00669476
17625.3 0.00739690
17642.9 0.00821470
17660.6 0.00917460
17678.2 0.0103108
17713.5 0.0133071
17748.8 0.0177813
17766.5 0.0208819
17784.1 0.0248284
17801.8 0.0299355
17819.4 0.0366616
17837.1 0.0456786
17854.7 0.0579584
17872.4 0.0748328
17890.0 0.0978304
17922.5 0.156192
17955.0 0.194674
17987.5 0.155460
18020.0 0.0971248
18050.9 0.0611065
18081.9 0.0403720
18112.8 0.0281585
18143.8 0.0205790
18174.7 0.0156203
18205.6 0.0122267
18267.5 0.00804227
18329.4 0.00567356
18391.3 0.00421086
18515.0 0.00257927
18638.8 0.00174075
18762.5 0.00125481
18886.3 0.000948761
19010.0 0.000743900
19257.5 0.000495782
19505.0 0.000357555
19752.5 0.000273342
20000.0 0.000218878
20343.2 0.000171555
20686.4 0.000144037
21372.8 0.000128403
21716.0 0.000145026
21887.6 0.000166630
22059.2 0.000207438
22230.8 0.000291459
22316.6 0.000369997
22402.4 0.000503608
22488.2 0.000763440
22531.1 0.00100228
22574.0 0.00141044
22616.9 0.00222327
22659.8 0.00435383
22681.2 0.00716600
22692.0 0.00990648
22702.7 0.0148139
22708.1 0.0189019
22713.4 0.0250655
22718.8 0.0350269
22724.1 0.0527165
22726.8 0.0672361
22729.5 0.0888500
22732.2 0.123053
22734.9 0.181876
22737.5 0.295909
22738.9 0.397835
22740.2 0.562413
22741.6 0.852137
22742.9 1.42725
22743.6 1.94647
22744.2 2.77816
22744.9 4.17899
22745.6 6.58721
22746.3 10.5477
22747.0 13.1302
22747.7 10.4880
22748.4 6.54075
22749.2 3.86881
22750.0 2.44497
22750.8 1.65454
22751.6 1.18878
22752.3 0.888531
22753.1 0.687649
22754.7 0.446616
22756.2 0.312087
22757.8 0.230658
22760.9 0.140593
22764.0 0.0948193
22767.1 0.0684744
22770.2 0.0519607
22773.3 0.0409472
22779.5 0.0276671
22785.8 0.0203161
22792.0 0.0158733
22798.2 0.0130330
22810.6 0.00987795
22823.1 0.00849729
22847.9 0.00843920
22872.8 0.0115069
22885.3 0.0150174
22897.7 0.0213358
22910.1 0.0338682
22916.3 0.0451677
22919.5 0.0531482
22922.6 0.0634525
22925.7 0.0771496
22928.8 0.0957972
22930.3 0.107776
22931.9 0.122004
22935.0 0.160258
22938.1 0.218666
22939.7 0.259923
22941.2 0.312560
22942.8 0.381474
22944.3 0.471474
22945.9 0.590163
22947.4 0.745210
22950.7 1.19121
22954.0 1.48809
22955.7 1.40007
22957.3 1.18929
22960.6 0.743576
22962.7 0.541427
22964.8 0.402498
22969.0 0.239769
22973.3 0.156182
22977.5 0.108963
22981.7 0.0800585
22985.9 0.0612043
22994.4 0.0390330
23002.8 0.0270414
23011.2 0.0198490
23028.1 0.0120294
23045.0 0.00809325
23061.9 0.00583774
23078.8 0.00442352
23095.7 0.00347747
23129.4 0.00232698
23163.2 0.00167872
23196.9 0.00127627
23230.7 0.00100864
23298.2 0.000684726
23365.8 0.000502816
23500.8 0.000315235
23635.9 0.000224840
23770.9 0.000174250
24041.0 0.000122504
24311.1 9.80954E-05
24581.2 8.50195E-05
25121.4 7.34993E-05
26201.8 7.36265E-05
27282.2 9.19379E-05
28362.6 0.000137837
28902.8 0.000183087
29443.0 0.000261885
29983.2 0.000416140
30253.3 0.000555302
30523.4 0.000782615
30793.5 0.00119134
30861.1 0.00134485
30894.8 0.00143310
30928.6 0.00153042
30962.3 0.00163813
30996.1 0.00175768
31029.9 0.00189093
31063.6 0.00204003
31097.4 0.00220768
31131.2 0.00239699
31164.9 0.00261195
31198.7 0.00285751
31232.4 0.00313999
31266.2 0.00346729
31333.7 0.00430296
31401.3 0.00551221
31468.8 0.00747056
31502.5 0.00911985
31536.3 0.0122046
31553.2 0.0154863
31561.6 0.0184109
31570.1 0.0233996
31578.5 0.0334262
31582.7 0.0429892
31586.9 0.0597942
31591.2 0.0938209
31593.3 0.125844
31595.4 0.180662
31597.5 0.286297
31598.6 0.380716
31599.6 0.530825
31600.7 0.795438
31601.7 1.30861
31602.2 1.76937
31602.8 2.49811
31603.3 3.70395
31603.8 5.68109
31604.4 9.06007
31605.0 11.3032
31605.6 8.99854
31606.2 5.63325
31606.6 4.10961
31607.0 3.05712
31607.7 1.82473
31608.5 1.19186
31609.2 0.838022
31610.0 0.617956
31610.7 0.474563
31612.3 0.306982
31613.8 0.215791
31615.3 0.161554
31618.3 0.102703
31621.3 0.0732124
31624.4 0.0565556
31630.4 0.0395351
31636.5 0.0317368
31642.5 0.0278031
31654.6 0.0250053
31666.7 0.0256820
31678.8 0.0294176
31690.9 0.0392903
31697.0 0.0503367
31703.0 0.0732551
31707.4 0.110190
31709.6 0.144660
31711.8 0.202739
31714.0 0.313245
31715.1 0.409758
31716.2 0.560096
31717.3 0.817123
31718.4 1.29900
31718.9 1.70857
31719.5 2.32567
31720.0 3.28398
31720.6 4.74402
31721.3 7.58377
31722.0 9.43545
31722.7 7.54133
31723.4 4.71106
31724.1 2.95961
31724.8 1.95725
31725.5 1.36931
31726.2 1.00540
31727.6 0.605533
31729.0 0.405600
31730.3 0.292580
31731.7 0.222840
31734.5 0.145145
31737.2 0.105303
31740.0 0.0822927
31745.5 0.0583257
31751.0 0.0468907
31756.6 0.0407323
31767.6 0.0350355
31789.7 0.0324424
31811.7 0.0331185
31900.0 0.0371135
31949.3 0.0346084
31998.5 0.0292735
32097.0 0.0182205
32188.0 0.0116061
32278.9 0.00774593
32369.9 0.00544379
32460.9 0.00400132
32642.8 0.00239725
32824.7 0.00158622
33006.6 0.00112452
33188.6 0.000838298
33552.4 0.000517999
33916.3 0.000353038
34280.1 0.000257493
34644.0 0.000197530
35007.8 0.000157710
35735.5 0.000110856
36463.2 8.86570E-05
36827.1 8.56867E-05
37190.9 9.50963E-05
37372.9 0.000114728
37554.8 0.000175943
37736.7 0.000514521
37782.2 0.000864256
37827.7 0.00185310
37850.4 0.00321768
37873.2 0.00702804
37884.5 0.0122064
37890.2 0.0172826
37895.9 0.0263313
37901.6 0.0449828
37904.4 0.0627329
37907.3 0.0934698
37910.1 0.153993
37911.5 0.208599
37913.0 0.297885
37914.4 0.458036
37915.1 0.589951
37915.8 0.785735
37916.5 1.09152
37917.2 1.59886
37917.9 2.49643
37918.6 4.14013
37919.3 6.62466
37920.0 8.28098
37920.7 6.62425
37921.4 4.13985
37922.1 2.41389
37922.9 1.50963
37923.6 1.01423
37924.4 0.725056
37925.2 0.539788
37925.9 0.417777
37927.4 0.269866
37928.9 0.188153
37930.4 0.138480
37933.5 0.0838587
37936.5 0.0561353
37939.5 0.0401822
37945.5 0.0234915
37951.6 0.0153889
37957.6 0.0108678
37969.7 0.00625570
37981.8 0.00406905
37993.9 0.00286502
38018.0 0.00165216
38066.4 0.000772865
38114.7 0.000461422
38211.4 0.000236917
38308.0 0.000157547
38501.4 0.000100114
38694.7 7.96313E-05
39081.3 6.49675E-05
39468.0 6.06547E-05
40241.3 6.24909E-05
41014.6 7.51033E-05
41788.0 0.000107223
42174.6 0.000140002
42561.3 0.000199195
42947.9 0.000321560
43141.3 0.000438410
43334.6 0.000641136
43527.9 0.00103954
43624.6 0.00140100
43721.3 0.00199409
43769.6 0.00244389
43793.8 0.00272799
43817.9 0.00306415
43842.1 0.00346597
43866.3 0.00395083
43890.4 0.00454306
43902.5 0.00488902
43914.6 0.00527494
43926.7 0.00570733
43938.8 0.00619279
43962.9 0.00736059
43987.1 0.00887246
44011.2 0.0108629
44035.4 0.0135324
44059.6 0.0171668
44083.7 0.0221642
44107.9 0.0289752
44130.2 0.0370741
44152.5 0.0463171
44197.0 0.0578182
44219.3 0.0543767
44241.6 0.0461962
44286.1 0.0288590
44330.7 0.0177441
44375.4 0.0115301
44420.0 0.00795287
44464.7 0.00576868
44509.3 0.00435722
44553.9 0.00339978
44643.2 0.00222958
44732.5 0.00157305
44821.8 0.00116995
45000.3 0.000722858
45178.9 0.000494380
45357.5 0.000362578
45714.6 0.000224981
46071.7 0.000159204
46428.8 0.000123645
47143.1 9.14797E-05
47857.3 8.36452E-05
48571.5 9.18493E-05
49285.8 0.000122129
49642.9 0.000153754
50000.0 0.000209444
50381.5 0.000329584
50572.2 0.000443207
50763.0 0.000638192
50953.7 0.00101526
51049.1 0.00135169
51144.4 0.00189424
51192.1 0.00229882
51216.0 0.00255156
51239.8 0.00284820
51263.7 0.00319939
51287.5 0.00361853
51311.3 0.00412386
51335.2 0.00473960
51359.0 0.00549888
51382.9 0.00644598
51406.7 0.00764327
51430.5 0.00917706
51454.4 0.0111669
51478.2 0.0137744
51502.1 0.0172050
51525.9 0.0216757
51551.4 0.0277267
51577.0 0.0346330
51628.0 0.0432271
51653.5 0.0406569
51679.1 0.0345456
51730.1 0.0215931
51787.1 0.0126177
51844.0 0.00791240
51901.0 0.00533338
51957.9 0.00381223
52014.9 0.00285337
52071.8 0.00221491
52185.7 0.00144959
52299.6 0.00102903
52413.5 0.000775185
52641.3 0.000500530
52869.1 0.000367115
53096.9 0.000297342
53552.5 0.000250408
54008.1 0.000287964
54235.9 0.000349618
54463.7 0.000468539
54691.5 0.000713800
54805.4 0.000941127
54919.3 0.00132014
55147.1 0.00352461
55175.6 0.00417208
55189.8 0.00456470
55204.1 0.00501454
55218.3 0.00553353
55232.5 0.00613541
55246.8 0.00683771
55261.0 0.00766178
55275.2 0.00863645
55289.5 0.00979604
55303.7 0.0111844
55318.0 0.0128548
55332.2 0.0148761
55346.4 0.0173256
55360.7 0.0202879
55374.9 0.0238361
55396.7 0.0304495
55418.5 0.0379985
55462.0 0.0474170
55483.8 0.0446374
55505.6 0.0379937
55549.1 0.0239108
55577.8 0.0174196
55606.6 0.0130050
55664.0 0.00798081
55721.5 0.00557035
55778.9 0.00443760
55836.4 0.00414951
55893.8 0.00488960
55922.5 0.00607657
55951.3 0.00887290
55965.6 0.0120261
55972.8 0.0147930
55980.0 0.0193770
55987.2 0.0282233
55990.8 0.0363884
55994.4 0.0503722
55997.9 0.0778674
55999.7 0.103195
56001.5 0.145310
56003.3 0.224293
56004.2 0.292291
56005.1 0.396475
56006.0 0.571421
56006.9 0.889968
56007.4 1.15287
56007.8 1.53800
56008.3 2.11555
56008.7 2.96946
56009.4 4.75027
56010.0 5.92525
56010.6 4.75051
56011.3 2.97018
56011.8 1.99587
56012.3 1.38482
56012.9 1.00264
56013.4 0.754598
56014.5 0.469334
56015.5 0.320574
56016.6 0.234324
56017.6 0.180260
56019.8 0.119549
56024.0 0.0703296
56028.2 0.0528316
56036.7 0.0446055
56045.2 0.0504208
56053.6 0.0673889
56062.1 0.102904
56066.3 0.133954
56070.6 0.181053
56074.8 0.254616
56079.0 0.369828
56084.5 0.589652
56090.0 0.736049
56095.5 0.588561
56101.0 0.368422
56106.7 0.223269
56112.4 0.143779
56118.1 0.0987229
56123.8 0.0714993
56129.5 0.0540282
56135.3 0.0422297
56146.7 0.0278682
56158.1 0.0198143
56169.5 0.0148640
56192.3 0.00934993
56215.2 0.00650111
56238.0 0.00483504
56283.7 0.00304976
56329.3 0.00215205
56375.0 0.00163052
56466.3 0.00106780
56557.7 0.000778226
56649.0 0.000605414
56831.7 0.000412961
57014.3 0.000311549
57197.0 0.000251552
57562.3 0.000191300
57927.7 0.000176551
58293.0 0.000211895
58475.7 0.000275559
58567.0 0.000339217
58658.3 0.000453160
58749.7 0.000689874
58841.0 0.00133332
58886.7 0.00219579
58909.5 0.00303601
58932.3 0.00453299
58943.8 0.00576693
58955.2 0.00761129
58966.6 0.0105467
58978.0 0.0156320
58989.4 0.0256294
58995.1 0.0346952
59000.8 0.0495288
59006.6 0.0762859
59009.4 0.0984699
59012.3 0.131423
59015.1 0.183387
59018.0 0.270013
59020.8 0.424909
59023.7 0.712515
59026.3 1.14026
59029.0 1.42370
59031.7 1.13837
59034.3 0.711061
59037.1 0.433726
59039.8 0.280179
59042.5 0.192448
59045.2 0.139317
59047.9 0.104959
59050.6 0.0817901
59056.1 0.0534690
59061.5 0.0376086
59066.9 0.0278800
59077.8 0.0170948
59088.7 0.0115812
59099.5 0.00839581
59110.4 0.00639390
59121.2 0.00505614
59143.0 0.00343970
59164.7 0.00254291
59208.1 0.00165148
59295.0 0.00109191
59381.9 0.00107549
59468.8 0.00142963
59512.2 0.00183670
59555.6 0.00256777
59599.1 0.00400685
59620.8 0.00529413
59642.5 0.00736388
59664.2 0.0109757
59675.1 0.0138659
59686.0 0.0180341
59691.4 0.0208317
59696.8 0.0242975
59702.3 0.0286419
59707.7 0.0341520
59713.1 0.0412178
59718.5 0.0503546
59724.0 0.0621991
59729.4 0.0774069
59735.6 0.0990433
59741.7 0.123775
59754.0 0.154671
59760.2 0.145549
59766.3 0.123705
59778.6 0.0773358
59788.0 0.0532446
59797.3 0.0377663
59806.7 0.0277573
59816.1 0.0211020
59834.8 0.0132407
59853.5 0.00903472
59872.2 0.00654954
59891.0 0.00496988
59928.4 0.00315737
59965.9 0.00220094
60003.3 0.00163754
60078.2 0.00103856
60153.1 0.000749017
60228.0 0.000594537
60377.8 0.000474635
60527.6 0.000515928
60602.5 0.000614860
60677.4 0.000820076
60752.3 0.00126989
60789.8 0.00170773
60827.2 0.00247219
60864.7 0.00397741
60883.4 0.00534157
60902.1 0.00757237
60920.9 0.0115769
60930.2 0.0148736
60939.6 0.0197650
60948.9 0.0274110
60958.3 0.0400775
60967.7 0.0624637
60977.0 0.103404
60986.0 0.165432
60995.0 0.206753
61004.0 0.165267
61013.0 0.103282
61018.9 0.0749177
61024.7 0.0554449
61036.4 0.0328239
61048.2 0.0213039
61059.9 0.0148370
61071.6 0.0108896
61083.3 0.00832209
61106.7 0.00531245
61130.2 0.00368855
61153.6 0.00271701
61200.5 0.00166288
