Zn-70(n,tot) ENDF/B-VII.1
Energy(eV) XS(b)
1.00000E-05 8.91819
1.25000E-05 8.43121
1.50000E-05 8.07173
2.00000E-05 7.56714
2.75000E-05 7.08702
3.50000E-05 6.77105
4.25000E-05 6.54294
5.00000E-05 6.36831
6.25000E-05 6.15053
7.50000E-05 5.98976
0.000100000 5.76410
0.000125000 5.61010
0.000150000 5.49643
0.000200000 5.33686
0.000275000 5.18504
0.000350000 5.08512
0.000425000 5.01298
0.000500000 4.95776
0.000625000 4.88889
0.000750000 4.83805
0.00100000 4.76669
0.00125000 4.71799
0.00150000 4.68204
0.00200000 4.63159
0.00275000 4.58357
0.00350000 4.55198
0.00425000 4.52916
0.00500000 4.51170
0.00625000 4.48992
0.00750000 4.47385
0.0100000 4.45128
0.0125000 4.43588
0.0150000 4.42451
0.0200000 4.40855
0.0253000 4.39711
0.0314750 4.38762
0.0376500 4.38057
0.0500000 4.37062
0.0625000 4.36373
0.0750000 4.35864
0.100000 4.35149
0.125000 4.34661
0.150000 4.34301
0.200000 4.33794
0.275000 4.33310
0.350000 4.32991
0.500000 4.32582
0.750000 4.32192
1.00000 4.31955
1.50000 4.31665
2.00000 4.31484
2.75000 4.31299
3.50000 4.31166
5.00000 4.30973
7.50000 4.30744
10.0000 4.30563
15.0000 4.30261
20.0000 4.29995
27.5000 4.29625
35.0000 4.29273
50.0000 4.28600
75.0000 4.27526
100.000 4.26491
150.000 4.24503
200.000 4.22607
275.000 4.19914
350.000 4.17380
500.000 4.12728
750.000 4.05987
1000.00 4.00234
1500.00 3.90837
2000.00 3.83360
2750.00 3.74379
3500.00 3.67041
5000.00 3.54878
6250.00 3.45780
7500.00 3.36614
8750.00 3.26471
9375.00 3.20600
9687.50 3.17328
10000.0 3.13740
10199.9 3.11234
10399.7 3.08534
10599.6 3.05757
10649.6 3.05208
10699.5 3.05117
10724.5 3.05722
10737.0 3.06535
10749.5 3.08195
10762.0 3.11981
10768.2 3.15853
10774.5 3.22966
10777.6 3.28995
10780.7 3.38173
10783.8 3.53176
10787.0 3.80176
10788.5 4.02780
10790.1 4.36640
10791.6 4.91056
10793.2 5.86724
10794.0 6.64390
10794.8 7.78719
10795.5 9.56860
10796.3 12.5641
10797.1 18.1713
10797.5 22.9997
10797.9 30.4965
10798.3 42.9641
10798.7 65.6249
10798.9 84.8654
10799.1 111.582
10799.3 153.703
10799.4 213.494
10799.7 339.776
10800.0 423.918
10800.3 339.612
10800.6 213.306
10800.9 124.201
10801.2 79.2228
10801.5 54.4224
10801.8 39.7205
10802.1 30.4146
10802.4 24.1960
10803.1 16.7076
10803.7 12.5653
10804.3 10.0451
10805.5 7.27181
10806.8 5.86334
10808.0 5.05260
10809.3 4.54397
10810.5 4.20417
10813.0 3.79270
10815.5 3.56255
10817.9 3.42092
10820.4 3.32758
10825.4 3.21594
10830.3 3.15408
10840.3 3.09100
10850.2 3.06053
10860.1 3.04306
10879.9 3.02370
10919.6 3.00476
10959.3 2.99277
11118.1 2.95342
11197.5 2.93286
11276.8 2.91056
11435.6 2.85847
11594.4 2.79113
11673.7 2.74853
11753.1 2.69695
11832.5 2.63255
11872.2 2.59371
11911.9 2.54909
11951.6 2.49747
11991.3 2.43858
12011.1 2.40840
12030.9 2.38610
12040.9 2.38939
12045.8 2.40305
12050.8 2.43690
12055.7 2.52141
12058.2 2.61042
12060.7 2.77555
12061.9 2.91500
12063.2 3.12700
12064.4 3.47072
12065.7 4.08068
12066.3 4.57975
12066.9 5.31949
12067.5 6.48253
12068.1 8.46293
12068.8 12.2416
12069.1 15.5618
12069.4 20.8264
12069.7 29.8502
12070.0 47.0224
12070.2 62.4330
12070.3 84.5229
12070.5 121.898
12070.6 177.647
12070.8 280.582
12071.0 348.203
12071.2 274.507
12071.4 172.777
12071.5 124.538
12071.7 91.9134
12071.8 69.8578
12071.9 54.6245
12072.2 35.9295
12072.4 25.5304
12072.7 19.2310
12073.0 15.1525
12073.5 10.3926
12074.0 7.83774
12074.5 6.31386
12075.0 5.33380
12075.6 4.66690
12076.6 3.84373
12077.6 3.37412
12078.7 3.08082
12079.7 2.88513
12081.8 2.64736
12083.9 2.51263
12088.0 2.37014
12092.2 2.29591
12096.3 2.24898
12104.7 2.18740
12137.9 2.02221
12154.5 1.93669
12171.2 1.83961
12204.4 1.59204
12221.0 1.42957
12237.7 1.23003
12254.3 0.981158
12270.9 0.670782
12279.2 0.491995
12287.5 0.305988
12295.8 0.138068
12300.0 0.0812049
12304.2 0.0669775
12308.3 0.133227
12310.4 0.217111
12312.5 0.352805
12314.6 0.561262
12316.6 0.873236
12318.7 1.33486
12320.8 2.01313
12322.9 3.02640
12324.9 4.55563
12327.0 6.91334
12329.1 10.6327
12331.2 16.7806
12333.3 27.3635
12335.3 46.4307
12337.4 81.3115
12339.7 147.409
12342.0 207.469
12344.3 186.726
12346.6 130.704
12349.3 83.9774
12352.0 57.9431
12354.7 42.9098
12357.4 33.5984
12360.1 27.4262
12362.8 23.1417
12368.2 17.6709
12373.6 14.3910
12379.0 12.2468
12389.8 9.64584
12400.7 8.14980
12411.5 7.18754
12422.3 6.52023
12433.1 6.03184
12454.7 5.36685
12476.3 4.93637
12497.9 4.63533
12519.6 4.41304
12562.8 4.10654
12606.0 3.90481
12649.3 3.76164
12692.5 3.65467
12779.0 3.50656
12822.2 3.45531
12865.5 3.41783
12887.1 3.40558
12908.7 3.39989
12930.3 3.40502
12952.0 3.43135
12962.8 3.46012
12973.6 3.50887
12984.4 3.59436
12995.2 3.75583
13000.6 3.89359
13006.0 4.10373
13011.4 4.44677
13016.8 5.05747
13019.5 5.56112
13022.2 6.30767
13024.9 7.48573
13027.6 9.50130
13030.3 13.3734
13031.7 16.7993
13033.0 22.2701
13034.4 31.7435
13035.7 50.0599
13036.4 66.2847
13037.1 91.1582
13037.8 132.078
13038.4 198.159
13039.2 314.695
13040.0 392.188
13040.8 313.123
13041.6 196.972
13042.2 132.904
13042.9 93.5848
13043.5 68.7554
13044.2 52.5092
13045.5 33.5540
13046.7 23.6711
13048.0 17.8563
13049.3 14.2166
13051.9 10.0527
13054.4 7.86880
13057.0 6.58510
13059.6 5.76760
13062.2 5.21516
13067.3 4.53772
13072.4 4.15340
13077.6 3.91404
13082.7 3.75476
13093.0 3.56072
13103.3 3.45049
13113.5 3.38081
13123.8 3.33318
13144.4 3.27197
13164.9 3.23348
13185.5 3.20598
13206.0 3.18447
13247.1 3.15102
13288.2 3.12540
13308.8 3.11715
13329.3 3.12239
13339.6 3.14611
13344.8 3.17581
13349.9 3.23634
13352.5 3.29082
13355.0 3.37725
13357.6 3.52361
13360.2 3.79556
13361.5 4.02716
13362.7 4.37745
13364.0 4.95077
13365.3 5.95794
13366.6 7.99982
13367.2 9.87285
13367.9 12.9882
13368.5 18.7000
13368.8 23.5009
13369.2 30.7606
13369.5 42.3778
13369.8 62.2976
13370.1 99.1985
13370.4 170.999
13370.7 273.424
13371.0 343.085
13371.3 276.699
13371.6 175.103
13371.8 109.571
13372.1 72.7142
13372.4 51.3917
13372.7 38.6889
13373.0 30.0808
13373.2 24.4036
13373.8 17.2401
13374.3 13.1158
13374.9 10.6126
13376.0 7.79595
13377.1 6.31950
13378.2 5.46199
13379.3 4.91420
13380.4 4.54223
13382.6 4.08063
13384.8 3.81575
13387.0 3.64871
13389.2 3.53641
13393.6 3.39692
13398.1 3.31625
13406.9 3.22883
13415.7 3.18301
13424.5 3.15479
13442.2 3.12089
13459.8 3.10005
13477.5 3.08491
13512.8 3.06237
13548.1 3.04462
13583.4 3.02921
13654.0 3.00197
13724.6 2.97732
13795.2 2.95416
13936.4 2.91034
14218.8 2.82673
14501.2 2.74262
15066.0 2.55564
15630.8 2.31574
15913.2 2.16116
16195.6 1.97031
16478.0 1.72641
16760.4 1.40242
16901.6 1.19771
17042.8 0.955880
17184.0 0.671747
17325.2 0.352140
17395.8 0.193862
17466.4 0.0633243
17484.1 0.0403322
17501.7 0.0235590
17519.4 0.0147243
17537.0 0.0159968
17554.7 0.0301267
17572.3 0.0606225
17590.0 0.111990
17607.6 0.190061
17625.3 0.302443
17642.9 0.459154
17660.6 0.673522
17678.2 0.963470
17713.5 1.87701
17748.8 3.53386
17766.5 4.83137
17784.1 6.61713
17801.8 9.10595
17819.4 12.6255
17837.1 17.6821
17854.7 25.0576
17872.4 35.9271
17890.0 51.8873
17922.5 98.3319
17955.0 143.526
17987.5 132.683
18020.0 95.0080
18050.9 67.5113
18081.9 50.0241
18112.8 38.8863
18143.8 31.4947
18174.7 26.3593
18205.6 22.6453
18267.5 17.7232
18329.4 14.6667
18391.3 12.6141
18515.0 10.0660
18638.8 8.56547
18762.5 7.58419
18886.3 6.89465
19010.0 6.38412
19257.5 5.67814
19505.0 5.21095
19752.5 4.87614
20000.0 4.62170
20343.2 4.35093
20686.4 4.13883
21372.8 3.80203
21716.0 3.64584
21887.6 3.56255
22059.2 3.46988
22230.8 3.35905
22316.6 3.29177
22402.4 3.21162
22488.2 3.11199
22531.1 3.05175
22574.0 2.98243
22616.9 2.90325
22659.8 2.82143
22681.2 2.79582
22692.0 2.80024
22702.7 2.83628
22708.1 2.87929
22713.4 2.95502
22718.8 3.09159
22724.1 3.35362
22726.8 3.57755
22729.5 3.91830
22732.2 4.46721
22734.9 5.42477
22737.5 7.30213
22738.9 8.99101
22740.2 11.7287
22741.6 16.5651
22742.9 26.1966
22743.6 34.9106
22744.2 48.8899
22744.9 72.4729
22745.6 113.088
22746.3 180.057
22747.0 224.085
22747.7 179.911
22748.4 113.377
22749.2 68.2159
22750.0 44.1015
22750.8 30.6906
22751.6 22.7742
22752.3 17.6620
22753.1 14.2352
22754.7 10.1118
22756.2 7.79998
22757.8 6.39318
22760.9 4.82268
22764.0 4.01047
22767.1 3.53178
22770.2 3.22216
22773.3 3.00718
22779.5 2.72739
22785.8 2.54844
22792.0 2.41756
22798.2 2.31170
22810.6 2.13293
22823.1 1.96701
22847.9 1.60460
22872.8 1.13280
22885.3 0.834267
22897.7 0.494163
22910.1 0.166018
22916.3 0.0798359
22919.5 0.0940648
22922.6 0.179561
22925.7 0.382875
22928.8 0.782916
22930.3 1.09818
22931.9 1.52052
22935.0 2.85818
22938.1 5.31098
22939.7 7.26011
22941.2 9.94585
22942.8 13.7348
22944.3 19.0613
22945.9 26.6281
22947.4 37.3174
22950.7 73.2278
22954.0 110.202
22955.7 113.140
22957.3 104.491
22960.6 76.4341
22962.7 61.1972
22964.8 49.7864
22969.0 35.1102
22973.3 26.7130
22977.5 21.5185
22981.7 18.0733
22985.9 15.6570
22994.4 12.5390
23002.8 10.6430
23011.2 9.38184
23028.1 7.82343
23045.0 6.90495
23061.9 6.30280
23078.8 5.87815
23095.7 5.56277
23129.4 5.12541
23163.2 4.83607
23196.9 4.62975
23230.7 4.47460
23298.2 4.25519
23365.8 4.10565
23500.8 3.90993
23635.9 3.78242
23770.9 3.68873
24041.0 3.55182
24311.1 3.44825
24581.2 3.36098
25121.4 3.20891
26201.8 2.92529
27282.2 2.60683
28362.6 2.18634
28902.8 1.90469
29443.0 1.54415
29983.2 1.06731
30253.3 0.773270
30523.4 0.446236
30793.5 0.129883
30861.1 0.0686850
30894.8 0.0440666
30928.6 0.0247814
30962.3 0.0121204
30996.1 0.00767607
31029.9 0.0133917
31063.6 0.0316722
31097.4 0.0655118
31131.2 0.118606
31164.9 0.195614
31198.7 0.302395
31232.4 0.446422
31266.2 0.637079
31333.7 1.21061
31401.3 2.17112
31468.8 3.77587
31502.5 4.95492
31536.3 6.50646
31553.2 7.47633
31561.6 8.03103
31570.1 8.65475
31578.5 9.39643
31582.7 9.85303
31586.9 10.4305
31591.2 11.2769
31593.3 11.9262
31595.4 12.9116
31597.5 14.6362
31598.6 16.0983
31599.6 18.3563
31600.7 22.2448
31601.7 29.6486
31602.2 36.2266
31602.8 46.5624
31603.3 63.5599
31603.8 91.2569
31604.4 138.192
31605.0 168.561
31605.6 135.489
31606.2 88.3664
31606.6 67.1949
31607.0 52.6385
31607.7 35.7032
31608.5 27.0928
31609.2 22.3357
31610.0 19.4203
31610.7 17.5556
31612.3 15.4514
31613.8 14.3853
31615.3 13.8171
31618.3 13.3477
31621.3 13.2736
31624.4 13.3727
31630.4 13.8024
31636.5 14.3787
31642.5 15.0348
31654.6 16.5112
31666.7 18.1779
31678.8 20.0445
31690.9 22.1674
31697.0 23.3833
31703.0 24.8201
31707.4 26.2009
31709.6 27.1479
31711.8 28.4700
31714.0 30.6358
31715.1 32.3861
31716.2 35.0122
31717.3 39.3915
31718.4 47.4928
31718.9 54.3548
31719.5 64.6996
31720.0 80.8097
31720.6 105.483
31721.3 154.030
31722.0 187.126
31722.7 156.977
31723.4 109.751
31724.1 80.1688
31724.8 63.1444
31725.5 53.1420
31726.2 46.9640
31727.6 40.2499
31729.0 37.0046
31730.3 35.2839
31731.7 34.3307
31734.5 33.5365
31737.2 33.4389
31740.0 33.6628
31745.5 34.5573
31751.0 35.7421
31756.6 37.0783
31767.6 40.0208
31789.7 46.5998
31811.7 53.7578
31900.0 78.9168
31949.3 82.3640
31998.5 77.2359
32097.0 58.0178
32188.0 43.2692
32278.9 33.4027
32369.9 26.8765
32460.9 22.4168
32642.8 16.9078
32824.7 13.7371
33006.6 11.7166
33188.6 10.3309
33552.4 8.56783
33916.3 7.49912
34280.1 6.78249
34644.0 6.26696
35007.8 5.87627
35735.5 5.31650
36463.2 4.92467
36827.1 4.76582
37190.9 4.62356
37372.9 4.55724
37554.8 4.49349
37736.7 4.43324
37782.2 4.42069
37827.7 4.41524
37850.4 4.42326
37873.2 4.46416
37884.5 4.53085
37890.2 4.60042
37895.9 4.72896
37901.6 5.00232
37904.4 5.26757
37907.3 5.73286
37910.1 6.66050
37911.5 7.50452
37913.0 8.89272
37914.4 11.3974
37915.1 13.4690
37915.8 16.5528
37916.5 21.3838
37917.2 29.4244
37917.9 43.6979
37918.6 69.9399
37919.3 109.825
37920.0 136.865
37920.7 110.898
37921.4 71.2847
37922.1 43.6089
37922.9 29.0491
37923.6 21.0441
37924.4 16.3564
37925.2 13.3437
37925.9 11.3536
37927.4 8.93089
37928.9 7.58453
37930.4 6.76126
37933.5 5.84846
37936.5 5.37955
37939.5 5.10639
37945.5 4.81541
37951.6 4.67019
37957.6 4.58666
37969.7 4.49724
37981.8 4.45124
37993.9 4.42334
38018.0 4.39025
38066.4 4.35496
38114.7 4.33193
38211.4 4.29563
38308.0 4.26358
38501.4 4.20359
38694.7 4.14597
39081.3 4.03378
39468.0 3.92271
40241.3 3.69292
41014.6 3.43094
41788.0 3.09161
42174.6 2.86401
42561.3 2.56435
42947.9 2.13709
43141.3 1.84219
43334.6 1.46091
43527.9 0.957543
43624.6 0.652545
43721.3 0.326881
43769.6 0.174246
43793.8 0.108226
43817.9 0.0547701
43842.1 0.0204656
43866.3 0.0149630
43890.4 0.0523871
43902.5 0.0933853
43914.6 0.153697
43926.7 0.237718
43938.8 0.350655
43962.9 0.691642
43987.1 1.25272
44011.2 2.15361
44035.4 3.58864
44059.6 5.86973
44083.7 9.49740
44107.9 15.2071
44130.2 23.0716
44152.5 33.7195
44197.0 55.7458
44219.3 59.5175
44241.6 56.9600
44286.1 44.2771
44330.7 33.1508
44375.4 25.7591
44420.0 20.9257
44464.7 17.6476
44509.3 15.3266
44553.9 13.6179
44643.2 11.2998
44732.5 9.81796
44821.8 8.79668
45000.3 7.48710
45178.9 6.68398
45357.5 6.13908
45714.6 5.43832
46071.7 4.99508
46428.8 4.67770
47143.1 4.22061
47857.3 3.86077
48571.5 3.51386
49285.8 3.11186
49642.9 2.85943
50000.0 2.54202
50381.5 2.07814
50572.2 1.76623
50763.0 1.37172
50953.7 0.866091
51049.1 0.569637
51144.4 0.265150
51192.1 0.130076
51216.0 0.0749224
51239.8 0.0336769
51263.7 0.0127537
51287.5 0.0212530
51311.3 0.0721292
51335.2 0.184101
51359.0 0.384618
51382.9 0.713971
51406.7 1.23281
51430.5 2.03287
51454.4 3.25409
51478.2 5.10931
51502.1 7.91499
51525.9 12.1101
51551.4 18.7116
51577.0 27.7676
51628.0 47.0158
51653.5 50.6752
51679.1 48.8985
51730.1 38.5270
51787.1 28.2932
51844.0 21.7418
51901.0 17.5911
51957.9 14.8337
52014.9 12.9061
52071.8 11.4974
52185.7 9.59387
52299.6 8.37457
52413.5 7.52691
52641.3 6.41556
52869.1 5.70046
53096.9 5.17949
53552.5 4.39448
54008.1 3.69140
54235.9 3.29674
54463.7 2.82131
54691.5 2.19608
54805.4 1.79232
54919.3 1.30242
55147.1 0.134224
55175.6 0.0433044
55189.8 0.0204868
55204.1 0.0197860
55218.3 0.0485984
55232.5 0.116753
55246.8 0.237353
55261.0 0.427821
55275.2 0.712138
55289.5 1.12236
55303.7 1.70224
55318.0 2.51065
55332.2 3.62929
55346.4 5.16550
55360.7 7.25945
55374.9 10.0812
55396.7 16.2337
55418.5 24.9219
55462.0 44.4783
55483.8 48.9501
55505.6 48.0979
55549.1 39.0529
55577.8 32.9597
55606.6 28.0737
55664.0 21.4389
55721.5 17.4439
55778.9 14.8920
55836.4 13.1861
55893.8 12.0598
55922.5 11.7072
55951.3 11.5737
55965.6 11.6691
55972.8 11.8008
55980.0 12.0373
55987.2 12.4770
55990.8 12.8484
55994.4 13.4243
55997.9 14.4180
55999.7 15.2372
56001.5 16.4817
56003.3 18.5904
56004.2 20.2679
56005.1 22.6876
56006.0 26.4938
56006.9 32.9394
56007.4 37.9640
56007.8 45.0004
56008.3 55.0233
56008.7 68.9444
56009.4 94.6911
56010.0 104.181
56010.6 76.7120
56011.3 46.4447
56011.8 31.7617
56012.3 23.2929
56012.9 18.3980
56013.4 15.4627
56014.5 12.4616
56015.5 11.1704
56016.6 10.5823
56017.6 10.3183
56019.8 10.2024
56024.0 10.4692
56028.2 10.8869
56036.7 11.9084
56045.2 13.3645
56053.6 15.7766
56062.1 20.3315
56066.3 24.2586
56070.6 30.2296
56074.8 39.6227
56079.0 54.4963
56084.5 83.4499
56090.0 104.075
56095.5 86.5480
56101.0 58.3704
56106.7 39.3536
56112.4 28.7630
56118.1 22.6698
56123.8 18.9338
56129.5 16.4995
56135.3 14.8290
56146.7 12.7440
56158.1 11.5264
56169.5 10.7422
56192.3 9.79729
56215.2 9.24099
56238.0 8.86406
56283.7 8.35924
56329.3 8.01193
56375.0 7.74287
56466.3 7.33010
56557.7 7.01336
56649.0 6.75554
56831.7 6.35154
57014.3 6.04230
57197.0 5.79282
57562.3 5.40128
57927.7 5.08695
58293.0 4.79910
58475.7 4.65077
58567.0 4.57255
58658.3 4.49061
58749.7 4.40551
58841.0 4.32641
58886.7 4.30617
58909.5 4.31447
58932.3 4.35535
58943.8 4.40109
58955.2 4.47974
58966.6 4.61874
58978.0 4.87948
58989.4 5.42461
58995.1 5.93660
59000.8 6.79263
59006.6 8.36736
59009.4 9.68998
59012.3 11.6720
59015.1 14.8246
59018.0 20.1262
59020.8 29.6926
59023.7 47.6402
59026.3 74.7094
59029.0 93.4047
59031.7 76.4087
59034.3 49.8162
59037.1 32.3167
59039.8 22.5332
59042.5 16.8960
59045.2 13.4550
59047.9 11.2126
59050.6 9.68877
59056.1 7.80514
59061.5 6.73268
59066.9 6.06306
59077.8 5.29961
59088.7 4.89061
59099.5 4.64057
59110.4 4.47239
59121.2 4.35066
59143.0 4.18187
59164.7 4.06377
59208.1 3.88810
59295.0 3.59047
59381.9 3.24681
59468.8 2.76592
59512.2 2.43188
59555.6 1.99557
59599.1 1.40921
59620.8 1.04429
59642.5 0.635965
59664.2 0.235199
59675.1 0.0933622
59686.0 0.0736297
59691.4 0.152212
59696.8 0.329859
59702.3 0.655798
59707.7 1.20464
59713.1 2.09005
59718.5 3.48452
59724.0 5.64446
59729.4 8.92879
59735.6 14.5484
59741.7 22.5675
59754.0 40.9617
59760.2 45.3913
59766.3 44.8695
59778.6 36.7953
59788.0 30.4545
59797.3 25.5529
59806.7 21.9221
59816.1 19.2262
59834.8 15.5990
59853.5 13.3359
59872.2 11.8139
59891.0 10.7307
59928.4 9.30142
59965.9 8.40657
60003.3 7.79545
60078.2 7.01511
60153.1 6.53688
60228.0 6.21260
60377.8 5.79985
60527.6 5.55443
60602.5 5.47481
60677.4 5.42784
60752.3 5.43732
60789.8 5.48640
60827.2 5.60162
60864.7 5.86655
60883.4 6.12322
60902.1 6.55705
60920.9 7.35581
60930.2 8.02299
60939.6 9.02167
60948.9 10.5954
60958.3 13.2220
60967.7 17.8985
60977.0 26.5190
60986.0 39.7171
60995.0 48.7825
61004.0 40.3309
61013.0 27.2949
61018.9 21.2750
61024.7 17.1209
61036.4 12.2642
61048.2 9.76924
61059.9 8.35613
61071.6 7.48534
61083.3 6.91304
61106.7 6.23096
61130.2 5.85263
61153.6 5.61870
61200.5 5.35001
61247.3 5.20099
61294.2 5.10486
61387.9 4.98285
61481.7 4.90262
61575.4 4.84142
61762.9 4.74634
61950.4 4.66957
62137.8 4.60211
62325.3 4.53976
62372.2 4.52625
62419.1 4.52030
62442.5 4.53026
62465.9 4.58238
62477.7 4.66921
62483.5 4.76023
62489.4 4.92811
62495.2 5.28067
62498.2 5.61684
62501.1 6.19188
62504.0 7.28390
62505.5 8.23550
62506.9 9.70761
62508.4 12.1743
62509.9 16.6074
62511.3 25.4660
62512.1 33.2048
62512.8 44.6134
62513.9 69.6784
62515.0 86.9116
62516.1 71.1796
62517.2 46.7902
62518.2 31.6780
62519.3 22.8635
62520.3 17.5588
62521.3 14.2080
62523.4 10.4314
62525.4 8.50765
62527.4 7.39327
62529.5 6.69716
62533.6 5.90307
62537.7 5.48179
62541.7 5.23136
62549.9 4.95727
62558.1 4.81640
62566.2 4.73309
62582.6 4.64109
62615.3 4.56118
62648.0 4.52352
62713.3 4.48211
62778.7 4.45502
62909.4 4.41338
63040.2 4.37784
63301.6 4.31362
63563.1 4.25385
64086.1 4.14050
64609.0 4.03002
65654.9 3.80068
66700.8 3.53167
67746.7 3.16918
68269.7 2.91960
68792.6 2.58725
69315.6 2.11347
69577.0 1.79063
69838.5 1.38236
70100.0 0.865371
70361.5 0.269749
70426.8 0.139470
70459.5 0.0862746
70492.2 0.0457926
70524.9 0.0231032
70557.6 0.0251218
70590.3 0.0612186
70622.9 0.144216
70655.6 0.291795
70688.3 0.528221
70721.0 0.887437
70753.7 1.41614
70786.4 2.17965
70819.0 3.26643
70851.7 4.79528
70884.4 6.91620
70932.6 11.4744
70980.7 18.0439
71077.0 33.3748
71125.2 37.2388
71173.3 37.0287
71269.6 30.6615
71384.2 23.1294
71498.9 18.2179
71613.5 15.0939
71728.1 13.0126
71842.7 11.5532
71957.3 10.4838
72186.6 9.03420
72415.8 8.10401
72645.1 7.45863
73103.6 6.62136
73562.1 6.09868
74020.5 5.73714
74937.5 5.25636
75854.5 4.92951
76771.5 4.65549
77230.0 4.50790
77459.2 4.42021
77688.5 4.31179
77917.7 4.16081
78032.3 4.05364
78146.9 3.90531
78204.3 3.80548
78261.6 3.67814
78318.9 3.50862
78376.2 3.26975
78404.8 3.10877
78433.5 2.90535
