Ge-73(n,tot) ENDF/B-VII.1
Energy(eV) XS(b)
1.00000E-05 744.345
1.25000E-05 666.267
1.50000E-05 608.633
2.00000E-05 527.732
2.75000E-05 450.755
3.50000E-05 400.095
4.25000E-05 363.523
5.00000E-05 335.525
6.25000E-05 300.607
7.50000E-05 274.832
0.000100000 238.653
0.000125000 213.962
0.000150000 195.737
0.000200000 170.154
0.000275000 145.811
0.000350000 129.791
0.000425000 118.226
0.000500000 109.372
0.000625000 98.3302
0.000750000 90.1794
0.00100000 78.7382
0.00125000 70.9303
0.00150000 65.1668
0.00200000 57.0766
0.00275000 49.3787
0.00350000 44.3125
0.00425000 40.6552
0.00500000 37.8552
0.00625000 34.3632
0.00750000 31.7855
0.0100000 28.1671
0.0125000 25.6977
0.0150000 23.8748
0.0200000 21.3158
0.0253000 19.4814
0.0314750 17.9597
0.0376500 16.8296
0.0500000 15.2344
0.0625000 14.1290
0.0750000 13.3128
0.100000 12.1665
0.125000 11.3836
0.150000 10.8052
0.200000 9.99231
0.275000 9.21695
0.350000 8.70498
0.500000 8.04895
0.750000 7.42562
1.00000 7.04807
1.50000 6.58871
2.00000 6.30391
2.75000 6.01880
3.50000 5.81862
5.00000 5.53868
7.50000 5.23081
10.0000 5.01135
15.0000 4.69332
20.0000 4.46292
27.5000 4.21965
35.0000 4.07778
50.0000 4.17019
62.5000 5.05102
68.7500 6.19604
75.0000 8.50077
78.1250 10.5195
81.2500 13.6316
84.3750 18.6891
87.5000 27.5371
90.6250 44.7738
92.1875 60.0874
93.7500 84.5299
95.3125 126.763
96.8750 208.502
97.6563 281.054
98.4375 396.993
99.2188 597.604
100.000 984.840
100.433 1370.65
100.865 2006.86
101.298 3120.97
101.730 5132.84
102.160 8287.32
102.590 10424.0
103.020 8369.59
103.450 5258.69
103.827 3447.56
104.204 2355.59
104.582 1686.80
104.959 1259.22
105.713 773.502
106.467 522.360
107.222 376.965
107.976 285.553
109.484 181.501
110.993 126.707
112.502 94.2736
114.010 73.4439
115.519 59.2377
118.536 41.5741
121.553 31.3510
124.570 24.8564
127.588 20.4427
133.622 14.9333
139.656 11.6891
145.691 9.56630
151.725 8.06184
163.794 6.01046
175.863 4.54615
181.897 3.89578
187.931 3.26912
190.949 2.98931
193.966 2.82341
195.474 2.87256
196.983 3.16361
198.492 4.07268
199.246 5.07816
200.000 6.90985
200.474 8.85810
200.948 11.9526
201.421 17.1667
201.658 21.1679
201.895 26.7077
202.132 34.6391
202.369 46.4653
202.606 65.0526
202.843 96.3639
203.079 154.501
203.198 203.780
203.316 278.610
203.435 398.987
203.553 605.939
203.672 990.091
203.731 1302.87
203.790 1738.67
203.895 2831.25
204.000 3600.35
204.105 2925.50
204.210 1856.87
204.289 1300.56
204.367 937.031
204.446 698.953
204.525 538.576
204.682 346.503
204.840 241.909
204.997 179.131
205.154 138.655
205.469 91.3198
205.784 65.6835
206.098 50.1861
206.728 33.0568
207.357 24.1932
207.987 18.9571
209.245 13.2522
210.504 10.3337
211.763 8.65434
214.281 7.14654
216.798 7.56849
218.057 8.98619
219.316 12.2791
219.945 15.3382
220.575 20.2141
221.204 28.3948
221.833 43.2002
222.148 55.3464
222.463 73.2185
222.778 100.806
223.092 146.136
223.407 227.140
223.564 293.184
223.722 389.728
223.879 537.183
224.036 773.187
224.194 1169.65
224.351 1847.61
224.526 3014.53
224.700 3842.49
224.875 3135.50
225.049 2000.07
225.235 1220.22
225.421 793.236
225.608 551.076
225.794 404.365
225.980 309.816
226.166 245.636
226.539 166.829
226.911 122.108
227.283 94.2628
228.028 62.6729
228.773 45.9454
229.518 35.9271
230.262 29.3933
231.007 24.8607
232.497 19.0739
233.986 15.5919
235.476 13.2905
236.965 11.6636
239.944 9.51762
242.923 8.15696
248.881 6.48980
254.839 5.45602
260.797 4.70607
272.713 3.57559
284.629 2.62545
290.587 2.16614
296.545 1.71368
302.503 1.30293
305.482 1.15337
308.461 1.10752
309.951 1.16429
310.695 1.22712
311.440 1.32288
312.185 1.46327
312.930 1.66566
313.674 1.95719
314.419 2.38205
315.164 3.01705
315.909 4.00504
316.653 5.63939
317.026 6.88234
317.398 8.59955
317.770 11.0631
318.143 14.7672
318.515 20.6889
318.888 30.9696
319.074 39.1850
319.260 51.0579
319.446 69.0531
319.632 98.0439
319.819 148.665
320.005 247.227
320.098 334.044
320.191 469.295
320.284 688.424
320.377 1047.28
320.489 1700.35
320.600 2158.08
320.712 1753.27
320.823 1113.84
320.911 766.962
320.999 545.519
321.087 403.424
321.175 309.247
321.351 198.383
321.527 139.063
321.703 103.979
321.879 81.6309
322.231 56.0035
322.583 42.6123
322.935 34.9524
323.639 27.6516
324.343 25.5263
325.047 26.2775
326.455 34.8773
327.159 43.7567
327.863 57.7068
328.567 80.1640
329.271 118.287
329.975 188.580
330.327 247.316
330.679 335.079
331.031 472.596
331.383 700.402
331.735 1100.23
332.087 1822.93
332.444 2991.71
332.800 3834.13
333.157 3145.47
333.513 2017.16
333.779 1426.18
334.044 1036.58
334.310 779.442
334.575 605.083
335.106 394.594
335.637 278.851
336.168 208.847
336.699 163.356
337.761 109.646
338.824 80.1743
339.886 62.1372
342.010 41.8701
344.134 31.1509
346.258 24.6978
350.507 17.5748
354.755 14.2387
356.879 13.6530
359.003 14.1668
361.128 17.0873
362.190 20.6867
363.252 27.6851
364.314 42.6675
364.845 56.9396
365.376 81.0704
365.907 125.795
366.173 163.486
366.438 220.372
366.704 310.816
366.969 463.850
367.235 740.812
367.500 1261.98
367.750 2058.05
368.000 2625.06
368.250 2145.74
368.500 1372.36
368.659 1018.43
368.818 770.488
369.135 475.073
369.453 320.273
369.771 231.324
370.088 175.989
370.406 139.355
371.041 95.4058
371.677 70.9677
372.312 55.9142
373.583 38.9270
374.853 29.9124
376.124 24.4592
378.665 18.2962
381.207 14.9287
383.748 12.7899
388.831 10.1435
393.913 8.44896
396.455 7.76976
398.996 7.17034
401.537 6.70305
402.808 6.60497
404.078 6.77433
404.714 7.08578
405.349 7.71477
405.984 8.96216
406.620 11.5411
407.255 17.4419
407.573 23.3584
407.890 33.8040
408.208 54.2412
408.367 72.3217
408.526 100.864
408.685 149.020
408.843 237.299
408.923 310.194
409.002 416.662
409.082 575.443
409.161 812.090
409.281 1334.84
409.400 1716.18
409.520 1413.37
409.639 910.381
409.718 671.129
409.797 505.232
409.955 310.400
410.112 209.537
410.270 152.006
410.428 116.331
410.586 92.7605
410.901 64.4767
411.216 48.7179
411.532 38.9862
412.163 27.9602
412.794 22.0830
413.425 18.5196
414.056 16.1600
414.686 14.4945
415.948 12.3107
417.210 10.9431
419.734 9.30447
422.257 8.32669
424.781 7.65034
429.828 6.71980
439.923 5.53025
450.018 4.70145
460.112 4.19722
465.160 4.23863
470.207 4.84464
472.731 5.61935
475.254 7.04538
477.778 9.72125
480.301 15.0368
481.563 19.6654
482.825 26.7583
484.087 38.1696
485.349 57.7696
486.611 94.6360
487.242 126.012
487.872 173.663
488.503 249.844
489.134 379.331
489.765 614.431
490.396 1057.95
490.998 1751.48
491.600 2263.98
492.202 1872.57
492.804 1210.78
493.254 860.615
493.704 628.996
494.153 475.691
494.603 371.502
495.503 245.280
496.402 175.513
497.302 133.116
498.201 105.426
500.000 72.5135
502.236 51.0674
504.471 38.9916
506.707 31.3909
508.942 26.1902
511.178 22.3598
513.413 19.2819
514.531 17.8599
515.090 17.1466
515.649 16.4273
516.207 15.7460
516.487 15.4898
516.766 15.4366
517.046 15.9988
517.185 16.8937
517.325 18.7940
517.465 23.0093
517.535 26.9886
517.605 33.4733
517.674 44.6751
517.744 65.3951
517.779 82.5120
517.814 107.235
517.849 143.594
517.884 196.952
517.913 257.715
517.942 330.551
518.000 440.604
518.029 430.554
518.058 381.184
518.116 260.485
518.155 199.590
518.194 156.691
518.272 105.172
518.349 77.8273
518.427 61.8389
518.505 51.6974
518.582 44.8389
518.738 36.3526
518.893 31.4144
519.048 28.2355
519.359 24.4182
519.670 22.2107
519.981 20.7605
520.602 18.9269
521.223 17.7648
521.845 16.9234
523.088 15.7112
525.573 14.0909
528.059 12.9214
533.031 11.1492
538.002 9.71132
542.974 8.34484
545.459 7.61793
547.945 6.82417
549.188 6.40027
550.431 5.97283
551.674 5.59043
552.917 5.41136
553.538 5.53684
554.160 5.99811
554.781 7.15369
555.402 9.86573
555.713 12.4290
556.024 16.5390
556.335 23.4063
556.645 35.5736
556.801 45.2602
556.956 59.0195
557.111 79.2346
557.267 110.090
557.422 159.560
557.577 243.381
557.733 394.348
557.888 675.046
558.044 1141.30
558.200 1507.53
558.356 1273.50
558.512 840.346
558.619 622.447
558.726 471.636
558.833 367.736
558.939 294.749
559.153 203.077
559.367 150.495
559.580 117.639
559.794 95.7325
560.221 69.0848
560.648 53.9456
561.076 44.4152
561.930 33.3488
562.785 27.2599
563.639 23.4658
564.494 20.8942
565.348 19.0431
567.058 16.5606
568.767 14.9697
570.476 13.8576
572.185 13.0310
575.603 11.8704
579.021 11.0796
585.857 10.0368
592.694 9.35106
599.530 8.84764
613.203 8.12817
626.875 7.61394
640.548 7.20661
647.384 7.02305
654.221 6.83752
657.639 6.73474
659.348 6.67694
661.057 6.61177
662.766 6.53620
663.621 6.49477
664.475 6.45541
664.902 6.44119
665.330 6.43800
665.757 6.46092
666.184 6.54940
666.398 6.64901
666.612 6.82497
666.825 7.14713
667.039 7.77679
667.252 9.14874
667.359 10.4728
667.466 12.7308
667.573 16.9382
667.626 20.4876
667.680 25.8327
667.733 34.2824
667.786 48.4238
667.840 73.5503
667.867 93.1716
667.893 119.651
667.920 154.038
667.947 194.322
668.000 249.856
668.053 208.151
668.107 136.939
668.142 103.194
668.176 79.5927
668.246 51.6087
668.315 36.9621
668.385 28.5304
668.454 23.2703
668.524 19.7734
668.663 15.5507
668.802 13.1797
668.941 11.7072
669.219 10.0275
669.497 9.12510
669.775 8.57521
670.053 8.20976
670.331 7.95151
670.887 7.61295
671.443 7.40185
672.000 7.25750
672.556 7.15208
673.668 7.00661
674.780 6.90868
677.004 6.77886
679.229 6.69037
681.453 6.62160
685.902 6.51310
694.799 6.34620
703.696 6.20835
712.594 6.08615
721.491 5.97598
725.940 5.92662
728.164 5.90475
730.388 5.88683
732.613 5.87821
733.725 5.88226
734.837 5.89990
735.393 5.91891
735.949 5.95104
736.505 6.00719
737.061 6.11266
737.339 6.20200
737.617 6.33753
737.896 6.55623
738.174 6.94031
738.452 7.70643
738.591 8.41035
738.730 9.58036
738.869 11.7303
738.938 13.5454
739.008 16.3067
739.077 20.7680
739.147 28.5366
739.216 43.2841
739.251 55.5907
739.286 72.9909
739.343 113.314
739.400 140.185
739.457 113.291
739.514 72.9633
739.582 43.7330
739.650 28.9982
739.718 21.1502
739.786 16.6149
739.854 13.7882
739.922 11.9230
740.057 9.70636
740.193 8.49373
740.329 7.76201
740.600 6.96154
740.872 6.55634
741.143 6.32306
741.415 6.17611
741.686 6.07732
742.229 5.95587
742.772 5.88586
743.858 5.80978
744.944 5.76898
746.029 5.74291
748.201 5.71143
750.373 5.69971
751.458 5.70510
752.544 5.72701
753.087 5.75014
753.630 5.78881
754.173 5.85593
754.716 5.98142
754.987 6.08745
755.259 6.24810
755.530 6.50708
755.802 6.96151
756.073 7.86716
756.209 8.69858
756.344 10.0794
756.480 12.6158
756.548 14.7554
756.616 18.0011
756.684 23.2435
756.752 32.3338
756.820 49.5471
756.853 63.8119
756.887 83.9730
756.944 131.089
757.000 162.441
757.056 131.011
757.113 83.9882
757.161 56.9732
757.210 40.6388
757.259 30.6031
757.307 24.1751
757.404 16.8742
757.502 13.1079
757.599 10.9359
757.696 9.57664
757.890 8.04045
758.085 7.23969
758.279 6.77091
758.474 6.47281
758.668 6.27138
759.057 6.02376
759.446 5.88237
759.835 5.79332
760.223 5.73303
761.001 5.65745
761.779 5.61193
763.334 5.55782
764.890 5.52377
766.445 5.49781
769.555 5.45581
775.777 5.38487
781.998 5.31898
788.219 5.25503
794.441 5.19467
797.551 5.16995
799.107 5.16218
800.662 5.16223
802.217 5.18213
802.995 5.21053
803.773 5.26913
804.162 5.32111
804.550 5.40206
804.939 5.53575
805.328 5.77636
805.523 5.97492
805.717 6.27053
805.911 6.73740
806.106 7.53595
806.300 9.06742
806.397 10.4191
806.495 12.5715
806.592 16.2824
806.689 23.4080
806.738 29.6174
806.786 39.2101
806.835 54.6061
806.883 79.5766
806.942 124.414
807.000 154.278
807.058 124.381
807.117 79.6384
807.160 56.9727
807.203 42.1793
807.246 32.5014
807.289 25.9942
807.375 18.2328
807.461 14.0360
807.547 11.5410
807.633 9.94646
807.805 8.10890
807.977 7.13261
808.149 6.55389
808.321 6.18292
808.493 5.93094
808.837 5.61941
809.180 5.44076
809.524 5.32806
809.868 5.25181
810.556 5.15654
811.244 5.09960
812.620 5.03278
813.996 4.99127
815.371 4.95964
818.123 4.90727
823.626 4.80972
829.129 4.69932
834.632 4.55624
837.384 4.46211
840.135 4.34243
841.511 4.26900
842.887 4.18397
844.263 4.08652
845.638 3.98231
846.326 3.93616
847.014 3.90899
847.702 3.93341
848.390 4.09801
848.734 4.30376
849.078 4.68462
849.422 5.40777
849.766 6.86451
850.110 10.1294
850.282 13.3471
850.454 18.9245
850.540 23.3194
850.626 29.5406
850.712 38.6650
850.798 52.6211
850.884 75.1893
850.970 114.076
851.056 185.988
851.099 244.186
851.141 324.675
851.221 537.229
851.300 696.153
851.379 578.652
851.459 376.475
851.526 257.805
851.593 183.417
851.660 136.425
851.727 105.636
851.861 69.5904
851.995 50.3008
852.129 38.8071
852.263 31.3945
852.532 22.6808
852.800 17.8970
853.068 14.9591
853.336 13.0065
853.604 11.6316
854.141 9.84895
854.677 8.76103
855.214 8.03642
855.750 7.52280
856.823 6.84757
857.896 6.42576
858.969 6.13760
860.042 5.92793
862.187 5.64133
864.333 5.45185
868.624 5.20811
872.916 5.04798
877.207 4.92572
885.790 4.72741
894.373 4.53843
898.665 4.43174
902.956 4.30452
907.248 4.13826
909.393 4.03004
911.539 3.89631
912.612 3.81798
913.685 3.73297
914.758 3.64785
915.830 3.58802
916.367 3.59171
916.903 3.65315
917.440 3.84123
917.976 4.32921
918.244 4.81652
918.513 5.62890
918.781 7.04590
919.049 9.69119
919.183 11.8964
919.317 15.1633
919.451 20.2153
919.585 28.4719
919.719 42.9821
919.787 54.5609
919.854 71.0692
919.921 95.4630
919.988 132.668
920.055 191.336
920.122 284.147
920.211 472.096
920.300 613.950
920.389 512.142
920.478 334.498
920.556 227.295
920.634 160.889
920.711 119.351
920.789 92.3245
920.944 60.8905
921.100 44.1536
921.255 34.1977
921.410 27.7859
921.721 20.2445
922.032 16.0961
922.342 13.5413
922.653 11.8383
922.963 10.6356
923.585 9.06979
924.206 8.10868
924.827 7.46525
925.449 7.00705
926.691 6.40076
927.934 6.01888
929.176 5.75604
930.419 5.56342
932.904 5.29765
935.389 5.11985
940.359 4.88805
945.329 4.73411
950.299 4.61680
960.239 4.43300
980.120 4.13141
990.060 3.98103
1000.00 3.81537
1000.00 3.81535
1000.01 3.81528
1000.01 3.81521
1000.02 3.81507
1000.03 3.81480
1000.06 3.81426
1000.12 3.81318
1000.24 3.81100
1000.48 3.80664
1000.97 3.79785
1001.93 3.78004
1003.86 3.74326
1007.72 3.66419
1011.58 3.57510
1015.43 3.47080
1019.29 3.34153
1021.22 3.26204
1023.15 3.16810
1025.08 3.05767
1026.04 3.00032
1027.01 2.95613
1027.49 2.95165
1027.97 2.97760
1028.45 3.07050
1028.94 3.32288
1029.18 3.57924
1029.42 4.01115
1029.66 4.77257
1029.90 6.21285
1030.14 9.24982
1030.26 12.1249
1030.38 16.8835
1030.50 25.5831
1030.56 32.6809
1030.62 43.1019
1030.68 59.3786
1030.74 85.1482
1030.80 128.403
1030.86 202.352
1030.93 333.802
1031.00 431.444
1031.07 357.677
1031.14 232.187
1031.19 161.361
1031.25 116.765
1031.30 87.9163
1031.35 68.6428
1031.46 45.6964
1031.57 33.2162
1031.68 25.7082
1031.79 20.8374
1032.00 15.0843
1032.22 11.9163
1032.43 9.96736
1032.65 8.67154
1032.87 7.75905
1033.30 6.57371
1033.73 5.85125
1034.16 5.36860
1034.59 5.02481
1035.46 4.56749
1036.32 4.27563
1038.05 3.91360
1039.78 3.68340
1041.51 3.50965
1044.97 3.22458
1048.43 2.94629
1050.16 2.79395
1051.88 2.63336
1052.75 2.55713
1053.61 2.49791
1054.48 2.48767
1055.34 2.61537
1055.78 2.80333
1056.21 3.16849
1056.64 3.88270
1057.07 5.35009
1057.29 6.66192
1057.50 8.69286
1057.72 12.0050
1057.94 17.7724
1058.04 22.3257
1058.15 28.7801
1058.26 38.2581
1058.37 52.7908
1058.48 76.2897
1058.58 116.804
1058.69 191.759
1058.75 252.441
1058.80 336.645
1058.90 560.229
1059.00 728.764
1059.10 606.133
1059.20 393.965
1059.29 267.862
1059.37 190.149
1059.46 140.655
1059.54 108.653
1059.71 71.0494
1059.88 50.9618
1060.06 38.9992
1060.23 31.2832
1060.57 22.2052
1060.91 17.2140
1061.25 14.1407
1061.59 12.0932
1061.94 10.6478
1062.62 8.76660
1063.30 7.61135
1063.99 6.83682
1064.67 6.28384
1066.04 5.54840
1067.41 5.08027
1070.14 4.51013
1072.88 4.16373
1075.61 3.92020
1081.09 3.57445
1086.56 3.31274
1092.03 3.08512
1102.97 2.66016
1113.91 2.25179
1119.38 2.09261
1124.86 2.07153
1127.59 2.19673
1130.33 2.52724
1133.06 3.27520
1135.80 4.94816
1137.17 6.49913
1138.53 8.96598
1139.90 13.0692
1141.27 20.3304
1142.64 34.4078
1143.32 46.6486
1144.01 65.5440
1144.69 96.3015
1145.37 149.692
1146.06 249.166
1146.74 442.456
1147.37 741.079
1148.00 969.568
1148.63 812.528
1149.26 532.118
1149.81 362.186
1150.36 256.555
1150.90 190.167
1151.45 146.755
1152.54 96.0527
1153.64 68.9460
1154.73 52.7431
1155.83 42.2670
1158.02 29.8739
1160.20 23.0003
1162.39 18.7307
1166.77 13.8110
1171.15 11.0973
1175.53 9.38011
1184.28 7.28395
1193.04 5.97109
1197.41 5.46357
1201.79 5.05867
1206.17 4.89177
1208.36 5.06093
1210.55 5.69965
1211.64 6.39791
1212.73 7.60121
1213.83 9.74841
1214.92 13.8139
1215.47 17.2389
1216.02 22.3337
1216.57 30.2592
1217.11 43.3017
1217.66 66.4298
1218.21 111.791
1218.48 151.767
1218.75 213.408
1219.03 312.495
1219.30 472.132
1219.65 787.174
1220.00 1025.51
1220.35 852.075
1220.70 553.099
1221.07 344.243
1221.45 228.927
1221.82 162.677
1222.19 122.257
1222.57 95.8895
1222.94 77.8763
1223.69 55.4391
1224.44 42.4933
1225.18 34.3010
1226.68 24.8069
1228.17 19.6269
1229.66 16.4377
1231.16 14.3028
1232.65 12.7844
1235.64 10.7751
1238.63 9.50677
1241.61 8.62741
1244.60 7.97562
1250.58 7.05282
1256.55 6.40334
1268.50 5.45729
1280.45 4.66218
1286.43 4.25195
1292.40 3.80472
1295.39 3.56464
1298.38 3.32071
1301.36 3.09853
1304.35 2.98404
1305.84 3.04321
1307.34 3.28633
1308.83 3.91284
1310.33 5.40441
1311.07 6.82661
1311.82 9.12226
1312.57 12.9863
1313.31 19.8962
1313.69 25.4505
1314.06 33.3840
1314.43 45.1761
1314.81 63.3623
1315.18 93.0743
1315.55 144.496
1315.93 240.070
1316.30 425.633
1316.65 719.636
1317.00 949.568
1317.35 798.193
1317.70 523.599
1318.02 350.385
1318.34 245.407
1318.66 180.853
1318.98 139.392
1319.63 91.4887
1320.27 66.1683
1320.91 51.1001
1321.55 41.3854
1322.83 29.8970
1324.11 23.5137
1325.40 19.5418
1326.68 16.8614
1327.96 14.9467
1330.53 12.4044
1333.09 10.7963
1335.66 9.67892
1338.22 8.84475
1343.35 7.62650
1345.92 7.13113
1348.48 6.66162
1351.05 6.19206
1352.33 5.96022
1353.61 5.75980
1354.26 5.69917
1354.90 5.70697
1355.54 5.86525
1356.18 6.38043
1356.82 7.85997
1357.14 9.50244
1357.46 12.5546
1357.78 18.8033
1357.94 24.4446
1358.10 33.4498
1358.26 48.8523
1358.42 76.9653
1358.50 100.048
1358.58 133.490
1358.66 182.800
1358.74 255.373
1358.87 427.497
1359.00 561.457
1359.13 473.734
1359.26 313.191
1359.34 236.195
1359.42 181.791
1359.59 116.456
1359.75 81.8149
1359.92 61.6534
1360.09 48.9521
1360.25 40.4323
1360.58 30.0225
1360.92 24.0905
1361.25 20.3511
1361.91 16.0063
1362.58 13.6157
1363.24 12.1254
1363.90 11.1143
1364.57 10.3851
1365.90 9.40293
1367.22 8.76832
1369.88 7.98276
1372.54 7.50002
1375.19 7.16156
1380.50 6.69631
1385.82 6.37287
1391.13 6.12278
1401.75 5.73929
1423.00 5.18185
1444.25 4.72253
1465.50 4.25800
1476.12 3.99351
1486.74 3.68224
1497.37 3.29056
1502.68 3.04988
1507.99 2.77580
1510.65 2.63292
1513.30 2.50213
1515.96 2.42223
1518.62 2.50461
1519.94 2.69806
1521.27 3.11444
1522.60 3.97248
1523.93 5.78288
1524.59 7.40463
1525.26 9.92245
1525.92 14.0004
1526.58 20.9947
1527.25 33.9742
1527.58 44.8030
1527.91 60.8709
1528.24 85.6974
1528.58 125.844
1528.91 193.706
1529.24 310.498
