As-75(n,g) ENDF/B-VII.1
Energy(eV) XS(b)
1.00000E-05 226.261
1.25000E-05 202.374
1.50000E-05 184.741
2.00000E-05 159.991
2.75000E-05 136.440
3.50000E-05 120.942
4.25000E-05 109.753
5.00000E-05 101.187
6.25000E-05 90.5043
7.50000E-05 82.6188
0.000100000 71.5500
0.000125000 63.9963
0.000150000 58.4204
0.000200000 50.5936
0.000275000 43.1464
0.000350000 38.2452
0.000425000 34.7070
0.000500000 31.9983
0.000625000 28.6202
0.000750000 26.1266
0.00100000 22.6264
0.00125000 20.2377
0.00150000 18.4745
0.00200000 15.9995
0.00275000 13.6446
0.00350000 12.0948
0.00425000 10.9759
0.00500000 10.1194
0.00625000 9.05126
0.00750000 8.26278
0.0100000 7.15604
0.0125000 6.40079
0.0150000 5.84331
0.0200000 5.06083
0.0253000 4.49997
0.0314750 4.03484
0.0376500 3.68949
0.0500000 3.20216
0.0625000 2.86462
0.0750000 2.61551
0.100000 2.26594
0.125000 2.02746
0.150000 1.85149
0.200000 1.60463
0.275000 1.36996
0.350000 1.21569
0.500000 1.01941
0.750000 0.835506
1.00000 0.726351
1.50000 0.597723
2.00000 0.521819
2.75000 0.450587
3.50000 0.404614
5.00000 0.347975
7.50000 0.299035
10.0000 0.274639
15.0000 0.259485
20.0000 0.273755
26.7136 0.350241
30.0704 0.436799
33.4272 0.599200
36.7840 0.948074
38.4624 1.29391
40.1408 1.91991
40.9800 2.44377
41.8192 3.23910
42.6584 4.53321
43.4976 6.85390
43.9172 8.77808
44.3368 11.6720
44.7564 16.3184
45.1760 24.4842
45.3858 31.1149
45.5956 40.8814
45.8054 56.1163
46.0152 81.7862
46.1201 101.765
46.2250 130.008
46.3299 171.702
46.4348 236.724
46.5397 345.564
46.5922 429.210
46.6446 545.374
46.6971 711.649
46.7495 957.179
46.8020 1329.11
46.8544 1893.07
46.9272 3026.40
47.0000 3779.48
47.0728 3020.81
47.1456 1886.51
47.1902 1393.44
47.2348 1046.95
47.3240 632.806
47.4132 415.644
47.5024 291.327
47.5916 214.559
47.6808 164.182
47.8592 104.619
48.0376 72.2606
48.2160 52.8133
48.5728 31.6629
48.9296 21.0441
49.2864 14.9800
49.6432 11.1985
50.0000 8.68460
50.6604 5.82452
51.3207 4.17614
51.9811 3.14163
52.6414 2.45079
53.9621 1.61556
55.2828 1.15017
56.6035 0.865322
57.9242 0.678885
60.5656 0.458842
63.2070 0.340218
65.8484 0.270576
71.1312 0.202446
76.4139 0.187922
79.0553 0.200724
81.6967 0.237667
84.3381 0.329749
85.6588 0.425453
86.9795 0.601856
87.6399 0.750671
88.3002 0.977374
88.9606 1.34687
89.6209 2.00916
89.9511 2.55722
90.2813 3.37916
90.6114 4.69290
90.9416 6.98470
91.2718 11.5291
91.4369 15.6915
91.6020 22.5927
91.7671 35.2380
91.8496 45.8862
91.9321 62.0456
92.0147 88.0751
92.0972 133.194
92.1385 168.652
92.1798 218.288
92.2210 288.742
92.2623 388.162
92.3312 620.869
92.4000 775.821
92.4689 620.349
92.5377 387.539
92.5960 256.061
92.6543 175.641
92.7126 125.868
92.7709 93.8134
92.8875 57.2156
93.0041 38.2466
93.1207 27.2770
93.2373 20.4011
93.4705 12.6226
93.7037 8.56926
93.9369 6.19795
94.1701 4.69369
94.4033 3.68073
94.8697 2.44428
95.3361 1.74754
95.8025 1.31682
96.2689 1.03216
97.2016 0.691225
98.1344 0.502573
99.0672 0.387304
100.000 0.311698
101.563 0.232675
103.125 0.185329
106.250 0.133521
109.375 0.106995
112.500 0.0914226
118.750 0.0745110
125.000 0.0658447
150.000 0.0546180
175.000 0.0554560
200.000 0.0647496
213.136 0.0761890
226.271 0.101442
232.839 0.130516
236.123 0.157138
239.407 0.203296
242.690 0.297861
244.332 0.389809
245.974 0.554948
246.795 0.692705
247.616 0.901566
248.437 1.24111
249.258 1.84940
249.669 2.35334
250.079 3.11039
250.490 4.32362
250.900 6.44819
251.311 10.6897
251.516 14.6040
251.721 21.1420
251.926 33.2702
252.029 43.6056
252.132 59.4862
252.234 85.5097
252.337 131.777
252.388 169.053
252.439 222.434
252.491 300.294
252.542 413.456
252.621 661.057
252.700 825.885
252.779 660.803
252.858 413.161
252.922 278.065
252.986 193.619
253.050 140.242
253.113 105.407
253.241 65.0027
253.369 43.7746
253.496 31.3743
253.624 23.5579
253.879 14.6567
254.135 9.99138
254.390 7.25172
254.645 5.50917
254.901 4.33342
255.411 2.89566
255.922 2.08419
256.432 1.58228
256.943 1.25069
257.964 0.854351
258.985 0.636326
261.028 0.419285
263.070 0.321290
265.113 0.271410
269.197 0.231629
277.367 0.241224
285.537 0.316014
293.706 0.490451
297.791 0.660409
301.876 0.958906
305.961 1.56193
308.003 2.13231
309.024 2.55358
310.045 3.12448
311.067 3.92812
312.088 5.11596
313.109 6.98911
313.620 8.36562
314.130 10.2204
314.641 12.8089
315.151 16.5837
315.662 22.4098
316.173 32.1088
316.428 39.5822
316.683 50.0579
316.939 65.3645
317.194 88.9217
317.449 127.649
317.704 196.894
317.832 253.048
317.960 333.874
318.087 452.719
318.215 626.713
318.408 1000.92
318.600 1249.71
318.793 999.936
318.985 625.915
319.212 355.873
319.440 219.344
319.667 146.534
319.894 104.434
320.122 78.3089
320.349 61.1552
320.803 41.0296
321.258 30.4268
321.712 24.5105
322.622 19.8560
323.531 21.5780
323.985 25.3139
324.440 32.4451
324.894 46.1400
325.122 57.6852
325.349 74.9467
325.576 102.001
325.804 146.847
326.031 225.799
326.258 369.066
326.479 587.801
326.700 733.030
326.922 586.186
327.143 366.832
327.393 213.410
327.644 133.645
327.894 90.1421
328.144 64.5442
328.395 48.4111
328.645 37.6628
329.146 24.7308
329.646 17.5601
330.147 13.1752
331.148 8.29559
332.150 5.76718
333.151 4.27801
335.153 2.66571
337.156 1.84510
339.159 1.36524
343.164 0.848421
347.169 0.587402
351.174 0.436384
359.185 0.276988
367.195 0.199491
375.205 0.156960
391.226 0.117535
407.247 0.106424
423.268 0.113223
431.278 0.125549
439.288 0.152919
443.294 0.183470
447.299 0.257763
449.301 0.352286
450.303 0.442978
451.304 0.603758
452.305 0.934584
452.806 1.25187
453.307 1.80682
453.807 2.91419
454.058 3.93581
454.308 5.64390
454.558 8.81393
454.683 11.5209
454.808 15.6821
454.871 18.6496
454.934 22.5192
454.996 27.6750
455.059 34.6975
455.121 44.5423
455.184 58.6770
455.247 79.3562
455.309 109.450
455.357 140.010
455.405 174.820
455.500 218.305
455.548 205.477
455.596 174.778
455.691 109.401
455.773 71.9272
455.855 49.1632
455.938 35.1584
456.020 26.1891
456.184 15.9850
456.348 10.7176
456.513 7.67945
456.677 5.77850
457.006 3.63173
457.334 2.51498
457.663 1.86298
458.320 1.17266
458.977 0.835362
459.635 0.646922
460.949 0.457355
462.264 0.371860
463.578 0.329492
466.207 0.301205
468.836 0.313105
471.465 0.370676
472.780 0.443616
474.094 0.626764
474.751 0.856807
475.080 1.07130
475.409 1.43716
475.737 2.14205
475.902 2.76957
476.066 3.78029
476.230 5.55497
476.394 9.06702
476.477 12.2314
476.559 17.2809
476.641 25.7696
476.682 32.0913
476.723 40.2953
476.767 51.4932
476.812 64.2600
476.900 80.2315
476.989 64.2506
477.077 40.2864
477.140 28.5497
477.202 20.7630
477.265 15.5797
477.327 12.0566
477.452 7.79637
477.577 5.46469
477.703 4.06821
477.828 3.17184
478.078 2.13596
478.328 1.58633
478.578 1.26256
479.078 0.920502
479.579 0.757851
480.079 0.672796
481.080 0.604399
483.081 0.626127
485.083 0.767366
487.084 1.09371
488.085 1.41364
489.085 1.98222
490.086 3.14907
490.586 4.26315
491.087 6.20124
491.587 10.0357
491.837 13.5417
492.087 19.3425
492.338 29.9498
492.463 38.8612
492.588 52.3396
492.713 73.9871
492.838 111.327
492.963 181.216
493.088 319.079
493.194 509.927
493.300 636.969
493.406 509.777
493.512 318.915
493.613 200.449
493.715 132.404
493.816 92.4002
493.918 67.6221
494.019 51.4142
494.120 40.3299
494.323 26.6740
494.526 18.9443
494.729 14.1737
495.134 8.85230
495.540 6.11867
495.945 4.53601
496.756 2.87693
497.567 2.07792
498.378 1.63954
500.000 1.21675
501.994 1.02811
503.989 0.984717
507.978 1.09975
511.966 1.42243
513.961 1.68501
515.955 2.05080
517.949 2.57233
519.944 3.34413
521.938 4.54817
523.933 6.56906
524.930 8.13386
525.927 10.3340
526.924 13.5579
527.921 18.5340
528.919 26.7402
529.916 41.4688
530.414 53.4480
530.913 70.7558
531.412 96.2745
531.910 133.797
532.655 213.841
533.400 266.831
534.145 213.109
534.890 133.084
535.397 95.1887
535.903 69.6125
536.409 52.3690
536.916 40.4959
537.929 25.9738
538.942 17.9274
539.954 13.0663
540.967 9.92579
542.993 6.26892
545.019 4.31075
547.045 3.14500
549.070 2.39649
551.096 1.88797
555.147 1.26187
559.199 0.906255
563.250 0.685486
567.302 0.539387
575.405 0.364927
583.508 0.269840
591.611 0.213749
599.714 0.179520
615.919 0.149085
632.125 0.159939
640.228 0.193961
644.280 0.229623
648.331 0.294537
652.383 0.430684
654.408 0.563576
656.434 0.801140
658.460 1.29322
659.473 1.76718
660.486 2.59926
661.499 4.26795
662.005 5.81561
662.511 8.41785
662.765 10.4396
663.018 13.2903
663.271 17.4860
663.524 24.0015
663.777 34.8395
664.031 54.5444
664.157 70.7794
664.284 94.5232
664.410 130.059
664.537 183.207
664.719 292.837
664.900 365.781
665.082 292.683
665.263 183.050
665.394 128.297
665.526 92.2649
665.657 68.5250
665.789 52.4745
666.051 33.2226
666.314 22.7603
666.577 16.5171
666.840 12.5206
667.365 7.90471
667.891 5.45277
668.416 4.00056
669.467 2.44234
670.518 1.67019
671.569 1.23362
673.671 0.786356
675.773 0.576642
677.875 0.464865
682.079 0.364227
686.283 0.334602
690.487 0.339532
698.896 0.423195
707.304 0.642370
711.508 0.856753
713.610 1.01446
714.661 1.11209
715.712 1.22591
716.763 1.35969
717.814 1.51835
718.865 1.70854
719.916 1.93926
720.967 2.22312
722.018 2.57810
723.069 3.03079
724.120 3.62187
725.171 4.41660
726.222 5.52535
727.273 7.14966
728.324 9.69406
729.375 14.0866
729.901 17.6404
730.426 22.9083
730.952 31.2644
731.477 45.7498
731.740 57.2970
732.003 73.7977
732.265 97.9649
732.528 133.383
732.914 207.519
733.300 258.163
733.686 213.835
734.072 146.817
734.347 115.873
734.622 98.0240
735.172 88.2735
735.722 103.601
736.272 146.025
736.836 220.192
737.400 269.576
737.964 215.300
738.528 135.622
739.059 86.7310
739.590 58.2667
740.121 41.2922
740.652 30.6308
741.714 18.6941
742.776 12.5811
743.837 9.05082
744.899 6.83037
747.023 4.29711
749.147 2.95861
751.271 2.16497
755.518 1.30843
759.766 0.879470
764.013 0.634102
768.261 0.480636
772.508 0.378285
781.003 0.254552
789.498 0.185598
797.993 0.143514
806.488 0.116256
823.478 0.0856152
840.468 0.0730496
857.458 0.0760577
865.953 0.0919695
868.077 0.102820
870.200 0.126934
871.262 0.155709
871.793 0.182442
872.324 0.228709
872.855 0.321262
873.120 0.407754
873.386 0.555074
873.651 0.837706
873.784 1.08777
873.917 1.48766
874.050 2.18276
874.182 3.53307
874.249 4.72656
874.315 6.59268
874.381 9.64693
874.448 14.7012
874.524 23.4606
874.600 29.3008
874.676 23.4592
874.752 14.7000
874.833 8.87792
874.913 5.71185
874.993 3.92800
875.073 2.85535
875.153 2.16978
875.233 1.70852
875.393 1.14977
875.553 0.838744
875.714 0.649024
876.034 0.440268
876.354 0.334743
876.675 0.274729
877.315 0.213878
878.596 0.174148
879.878 0.167816
882.440 0.188086
885.003 0.241981
887.566 0.359644
888.847 0.474541
890.128 0.679222
891.409 1.10117
892.050 1.50594
892.691 2.21373
893.331 3.62511
893.652 4.92628
893.972 7.09999
894.292 11.1309
894.453 14.5676
894.613 19.8449
894.773 28.4987
894.933 43.8764
895.013 56.2742
895.093 74.0334
895.173 99.9451
895.253 137.566
895.377 220.071
895.500 274.999
895.623 219.950
895.747 137.514
895.874 83.3300
896.002 53.5813
896.130 36.6960
896.257 26.4892
896.385 19.9406
896.512 15.5217
896.768 10.1494
897.023 7.15043
897.278 5.31517
897.788 3.28560
898.299 2.25111
898.809 1.65523
899.830 1.03375
900.851 0.736286
901.871 0.574427
903.913 0.422048
905.954 0.368075
907.996 0.360338
912.079 0.436109
914.121 0.525512
916.162 0.670870
918.204 0.913961
920.245 1.35215
921.266 1.71326
922.287 2.25082
923.307 3.09994
924.328 4.55387
924.838 5.70302
925.349 7.35084
925.859 9.82909
926.370 13.7921
926.880 20.6727
927.135 26.1547
927.390 34.0308
927.646 45.8090
927.901 64.2225
928.156 94.2424
928.411 143.819
928.706 229.923
929.000 287.193
929.295 229.600
929.590 143.410
929.865 91.0282
930.140 60.5618
930.415 42.4532
930.690 31.1440
931.240 18.6046
931.790 12.2825
932.341 8.68947
932.891 6.46349
933.991 3.97258
935.091 2.68732
936.191 1.94002
937.291 1.46779
938.391 1.15064
940.592 0.764378
942.792 0.547035
944.992 0.412699
947.193 0.323862
951.593 0.217258
955.994 0.158054
960.394 0.121723
964.795 0.0977852
973.596 0.0691086
982.398 0.0531766
1000.00 0.0369913
1027.44 0.0272155
1054.87 0.0252763
1068.59 0.0275747
1082.31 0.0366366
1089.17 0.0499311
1092.60 0.0633098
1096.03 0.0877553
1097.74 0.108363
1099.46 0.139818
1101.17 0.191311
1102.89 0.284240
1103.74 0.361841
1104.60 0.479019
1105.46 0.668596
1106.32 1.00419
1106.75 1.27917
1107.17 1.68729
1107.60 2.33031
1108.03 3.42548
1108.46 5.52920
1108.67 7.38215
1108.89 10.3328
1109.10 15.4543
1109.21 19.4966
1109.32 25.2713
1109.42 33.8430
1109.53 47.1120
1109.64 68.4658
1109.75 103.208
1109.87 165.369
1110.00 206.365
1110.13 164.822
1110.26 103.176
1110.35 72.3627
1110.44 52.2419
1110.53 38.7960
1110.62 29.7825
1110.80 18.8713
1110.99 12.9489
1111.17 9.38619
1111.35 7.11272
1111.72 4.47338
1112.08 3.06547
1112.45 2.23302
1112.81 1.69961
1113.18 1.33769
1113.91 0.892043
1114.64 0.639353
1115.37 0.482093
1116.10 0.377909
1117.56 0.252561
1119.02 0.182988
1120.48 0.140433
1121.94 0.112538
1124.87 0.0794404
1127.79 0.0613475
1133.63 0.0433984
1139.47 0.0352873
1145.32 0.0311417
1157.00 0.0278175
1180.38 0.0287951
1203.75 0.0358718
1227.13 0.0529428
1238.82 0.0700192
1250.50 0.100701
1256.35 0.126138
1262.19 0.164394
1268.03 0.225902
1273.88 0.334337
1276.80 0.422792
1279.72 0.553735
1282.64 0.759511
1285.56 1.10996
1287.02 1.38590
1288.49 1.78028
1289.95 2.37105
1291.41 3.31112
1292.87 4.93130
1293.60 6.21412
1294.33 8.04237
1295.06 10.7566
1295.79 14.9458
1296.52 21.6714
1297.25 32.5824
1298.13 52.1088
1299.00 65.0890
1299.88 52.0238
1300.75 32.5007
1301.56 20.7131
1302.37 13.8234
1303.18 9.71496
1303.99 7.14154
1305.60 4.28214
1307.22 2.83790
1308.84 2.01664
1310.46 1.50810
1313.69 0.940634
1316.93 0.650299
1320.16 0.484713
1323.40 0.384107
1326.64 0.321972
1333.11 0.271406
1336.34 0.280343
1339.58 0.325059
1342.81 0.446360
1344.43 0.573372
1346.05 0.804260
1347.67 1.28066
1348.48 1.73145
1349.29 2.50302
1349.69 3.11293
1350.09 3.98395
1350.50 5.29421
1350.90 7.37742
1351.11 8.92042
1351.31 10.9837
1351.51 13.8343
1351.71 17.9055
1351.91 23.9458
1352.12 33.2876
1352.32 48.2958
1352.52 72.6335
1352.76 115.547
1353.00 143.889
1353.24 115.502
1353.48 72.5865
1353.65 50.9785
1353.83 36.7778
1354.00 27.3814
1354.17 21.0081
1354.52 13.3233
1354.87 9.14852
1355.21 6.64723
1355.56 5.04842
1356.25 3.19689
1356.95 2.21190
1357.64 1.62759
1359.02 0.998933
1360.41 0.685803
1361.80 0.507449
1364.57 0.322071
1367.34 0.232319
1370.11 0.182112
1375.65 0.131223
1381.20 0.108476
1386.74 0.0984327
1397.83 0.100154
1408.91 0.132272
1414.46 0.170139
1420.00 0.241646
1422.77 0.302279
1425.54 0.394494
1428.31 0.544125
1431.08 0.809739
1432.47 1.02733
1433.86 1.35022
1435.24 1.85870
1436.63 2.72579
1437.32 3.40948
1438.01 4.38731
1438.71 5.85308
1439.40 8.18709
1440.09 12.2128
1440.44 15.4053
1440.79 19.9510
1441.13 26.7155
1441.48 37.1516
1441.82 53.9277
1442.17 81.2040
1442.59 130.264
1443.00 163.085
1443.42 130.177
1443.83 81.1187
1444.11 58.3738
1444.38 42.9136
1444.93 25.1812
1445.49 16.2323
1446.04 11.2501
1446.59 8.22100
1447.14 6.26106
1448.24 3.96846
1449.35 2.73666
1450.45 2.00155
1452.65 1.20730
1454.86 0.810713
1457.07 0.585429
1459.27 0.445959
1461.48 0.354501
1465.89 0.250051
1470.30 0.211476
1472.51 0.223479
1473.61 0.247499
1474.71 0.298938
1475.81 0.416154
1476.37 0.533672
1476.92 0.743649
1477.47 1.17254
1477.74 1.57542
1478.02 2.25720
1478.30 3.55646
1478.43 4.69256
1478.57 6.46772
1478.71 9.50100
1478.85 15.1946
1478.92 20.0400
1478.98 27.3499
1479.05 38.7236
1479.12 56.1801
1479.17 71.9767
1479.21 90.0235
1479.30 112.249
1479.39 89.6153
1479.48 56.1709
1479.58 32.9656
1479.68 20.7287
1479.78 13.9920
1479.87 10.0371
1479.97 7.50671
1480.07 5.83284
1480.27 3.80461
1480.47 2.68243
1480.66 1.99943
1481.06 1.24719
1481.45 0.864414
1481.84 0.643461
1482.63 0.410919
1483.42 0.296715
1484.21 0.231910
1485.79 0.163705
1487.36 0.129389
1488.94 0.109028
1492.09 0.0858417
1498.40 0.0639961
1504.70 0.0529205
1517.31 0.0415060
1529.92 0.0361717
1555.14 0.0336586
1580.36 0.0387705
1605.58 0.0552744
1618.19 0.0728756
1630.80 0.105297
1637.11 0.132532
1643.41 0.173824
1649.72 0.240688
1656.02 0.359439
1659.17 0.456831
1662.33 0.601560
1665.48 0.830178
1668.63 1.22197
1670.21 1.53235
1671.78 1.97801
1673.36 2.65004
1674.94 3.72912
1676.51 5.61498
1677.30 7.12596
1678.09 9.30965
1678.88 12.6009
1679.66 17.8010
1680.45 26.4004
1681.24 40.8603
1682.12 65.3687
1683.00 81.6741
1683.88 65.2849
1684.76 40.7790
1685.61 25.5543
1686.45 16.8365
1687.30 11.7226
1688.14 8.55738
1688.99 6.49164
1689.83 5.07995
1691.52 3.34139
1693.21 2.35855
1694.90 1.75192
1698.28 1.07569
1701.66 0.728047
1705.04 0.526587
1708.42 0.399743
1711.80 0.314947
1718.56 0.212762
1725.32 0.157821
1732.08 0.135632
1733.77 0.141846
1735.46 0.171000
1736.30 0.214979
1736.73 0.258694
1737.15 0.336127
1737.57 0.492412
1737.78 0.636814
1737.99 0.878357
1738.20 1.32614
1738.31 1.70977
1738.41 2.29298
1738.52 3.25640
1738.63 4.94795
1738.73 8.28021
1738.78 11.1358
1738.84 15.1828
1738.92 24.2057
1739.00 30.2086
1739.08 24.2040
1739.16 15.1804
1739.23 10.2706
1739.30 7.18835
1739.36 5.23899
1739.43 3.96268
1739.56 2.48124
1739.69 1.70550
1739.82 1.24791
1739.95 0.960853
1740.22 0.631764
1740.48 0.458697
1740.74 0.356687
1741.27 0.247327
1741.80 0.192779
1742.32 0.161465
1743.37 0.128214
1745.48 0.101177
1747.58 0.0893819
1756.00 0.0713897
1764.42 0.0656986
1772.83 0.0671387
1781.25 0.0794576
1785.46 0.0942772
1789.67 0.122612
1793.88 0.183815
1795.98 0.244169
1798.08 0.352186
1799.14 0.441333
1800.19 0.574623
1801.24 0.786705
1802.29 1.15418
1803.34 1.87475
1803.87 2.52673
1804.40 3.59335
1804.92 5.50812
1805.18 7.08669
1805.45 9.43167
1805.71 13.0987
1805.97 19.1936
1806.24 30.0037
1806.37 38.4943
1806.50 49.8664
1806.75 79.8355
1807.00 99.7030
1807.25 79.6836
1807.50 49.8421
1807.80 28.1934
1808.09 17.3005
1808.39 11.4709
1808.69 8.10688
1808.98 6.00552
1809.28 4.62314
1809.87 2.97757
1810.47 2.07632
1811.06 1.53248
1812.24 0.938985
1813.43 0.639501
1814.61 0.468161
1816.99 0.289880
1819.36 0.204301
1821.73 0.157173
1826.47 0.111136
1831.21 0.0927974
1835.95 0.0896056
1838.32 0.0957036
1840.69 0.117675
1841.88 0.148609
1842.47 0.178908
1843.06 0.232662
1843.66 0.342475
1843.95 0.445980
1844.25 0.623330
1844.55 0.966809
1844.69 1.27138
1844.84 1.76024
1844.99 2.61331
1845.14 4.28331
1845.21 5.76891
1845.29 8.11265
1845.36 11.9807
1845.43 18.4683
1845.52 29.4985
1845.60 36.8496
1845.68 29.4972
1845.77 18.4668
1845.82 13.2674
1845.88 9.79628
1845.99 5.76816
1846.10 3.74206
1846.21 2.62095
1846.32 1.93361
1846.43 1.49184
1846.65 0.972521
1846.87 0.692419
1847.09 0.526156
1847.54 0.346420
1847.98 0.256603
1848.42 0.205751
1849.31 0.153449
1851.08 0.115872
1852.85 0.104200
1859.93 0.107041
1867.00 0.135568
1874.08 0.193130
1877.62 0.241981
1881.16 0.315771
1884.70 0.434018
1888.24 0.640035
1890.01 0.805582
1891.78 1.04664
1893.55 1.41665
1895.32 2.02502
1896.21 2.48756
1897.09 3.12682
1897.98 4.04299
1898.86 5.41555
1899.75 7.58687
1900.63 11.2548
1901.52 17.9120
1901.96 23.2205
1902.40 30.4959
1903.20 48.6989
