Rb-85(n,g) ENDF/B-VII.1
Energy(eV) XS(b)
1.00000E-05 24.8182
1.25000E-05 22.1981
1.50000E-05 20.2640
2.00000E-05 17.5491
2.75000E-05 14.9659
3.50000E-05 13.2659
4.25000E-05 12.0386
5.00000E-05 11.0990
6.25000E-05 9.92727
7.50000E-05 9.06232
0.000100000 7.84820
0.000125000 7.01964
0.000150000 6.40803
0.000200000 5.54952
0.000275000 4.73264
0.000350000 4.19504
0.000425000 3.80694
0.000500000 3.50982
0.000625000 3.13928
0.000750000 2.86576
0.00100000 2.48182
0.00125000 2.21981
0.00150000 2.02640
0.00200000 1.75491
0.00275000 1.49660
0.00350000 1.32659
0.00425000 1.20386
0.00500000 1.10991
0.00625000 0.992734
0.00750000 0.906239
0.0100000 0.784828
0.0125000 0.701973
0.0150000 0.640813
0.0200000 0.554963
0.0253000 0.493425
0.0314750 0.442386
0.0376500 0.404487
0.0500000 0.351000
0.0625000 0.313948
0.0750000 0.286598
0.100000 0.248207
0.125000 0.222009
0.150000 0.202671
0.200000 0.175527
0.275000 0.149702
0.350000 0.132706
0.500000 0.111047
0.750000 0.0906931
1.00000 0.0785629
1.50000 0.0641796
2.00000 0.0556101
2.75000 0.0474618
3.50000 0.0421037
5.00000 0.0352829
7.50000 0.0288869
10.0000 0.0250865
15.0000 0.0206015
20.0000 0.0179495
27.5000 0.0154550
35.0000 0.0138410
50.0000 0.0118475
75.0000 0.0101295
100.000 0.00931574
137.735 0.00922825
156.602 0.0106174
161.319 0.0119445
166.035 0.0155286
168.394 0.0203734
169.573 0.0251534
170.752 0.0338041
171.931 0.0520453
172.521 0.0699331
173.111 0.101948
173.405 0.128411
173.700 0.168061
173.995 0.231340
174.290 0.341468
174.585 0.558909
174.732 0.757085
174.879 1.08382
175.027 1.67720
175.101 2.17224
175.174 2.91637
175.248 4.09905
175.322 6.11041
175.395 9.79848
175.469 16.8862
175.535 27.0816
175.600 33.9097
175.666 27.0915
175.731 16.8987
175.779 11.8215
175.826 8.49584
175.873 6.30743
175.921 4.82894
176.016 3.05649
176.110 2.09327
176.205 1.51876
176.300 1.15082
176.490 0.725834
176.679 0.499950
176.869 0.366062
177.248 0.222193
177.627 0.150704
178.006 0.110113
178.386 0.0848878
178.765 0.0681541
179.523 0.0480443
180.282 0.0368952
181.798 0.0256470
183.315 0.0204206
184.832 0.0176250
187.866 0.0150217
193.933 0.0138865
200.000 0.0147600
205.768 0.0171286
211.535 0.0224291
214.419 0.0278596
217.303 0.0390959
218.744 0.0513020
219.465 0.0620361
220.186 0.0799937
220.907 0.115184
221.268 0.148059
221.628 0.204808
221.989 0.317217
222.169 0.420780
222.349 0.594286
222.529 0.918338
222.620 1.19676
222.710 1.62847
222.800 2.34527
222.890 3.64522
222.935 4.71499
222.980 6.27230
223.025 8.60115
223.070 12.0635
223.135 19.2363
223.200 24.0046
223.265 19.2427
223.330 12.0723
223.375 8.60401
223.420 6.27734
223.465 4.71861
223.510 3.65263
223.600 2.35403
223.691 1.63831
223.781 1.20764
223.871 0.930276
224.051 0.608570
224.231 0.437365
224.411 0.336245
224.772 0.229073
225.132 0.177924
225.493 0.151078
226.213 0.129460
227.655 0.137456
229.097 0.187396
229.817 0.234308
230.538 0.307603
231.259 0.428624
231.980 0.647261
232.340 0.829012
232.701 1.10252
233.061 1.54145
233.421 2.31128
233.782 3.85002
233.962 5.27137
234.142 7.64960
234.322 12.0673
234.413 15.8411
234.503 21.6518
234.593 31.2026
234.683 48.2603
234.773 81.9235
234.818 111.085
234.863 153.643
234.897 196.842
234.932 246.125
235.000 307.888
235.069 246.048
235.137 153.549
235.184 109.526
235.231 79.9659
235.278 60.0523
235.324 46.3970
235.418 29.7125
235.512 20.4938
235.605 14.9249
235.699 11.3301
235.886 7.14849
236.074 4.90889
236.261 3.57622
236.448 2.72024
236.636 2.13844
237.010 1.42134
237.385 1.01338
237.760 0.759502
238.134 0.590946
238.884 0.388026
239.633 0.275261
240.383 0.206189
241.132 0.160855
242.631 0.106928
244.129 0.0773039
245.628 0.0593084
247.127 0.0475697
250.124 0.0337045
253.121 0.0261566
259.116 0.0186851
265.111 0.0153008
271.105 0.0135458
283.095 0.0120281
307.074 0.0117312
331.053 0.0128235
355.031 0.0149626
379.010 0.0186054
402.989 0.0255021
414.979 0.0337836
417.976 0.0388565
420.973 0.0505590
422.472 0.0652238
423.221 0.0792751
423.971 0.104215
424.720 0.155711
425.095 0.205285
425.469 0.292349
425.844 0.467213
426.031 0.629621
426.219 0.903144
426.406 1.41680
426.500 1.86045
426.593 2.55045
426.687 3.70378
426.781 5.81005
426.828 7.55916
426.874 10.1260
426.921 13.9925
426.968 19.8182
427.034 31.6872
427.100 39.6008
427.166 31.6919
427.232 19.8242
427.298 12.2407
427.363 7.98235
427.429 5.52283
427.495 4.01751
427.561 3.04303
427.626 2.38108
427.758 1.57081
427.889 1.11544
428.020 0.835470
428.283 0.524410
428.546 0.365060
428.809 0.272871
429.334 0.176083
429.860 0.129117
430.386 0.102967
431.437 0.0766731
433.539 0.0585620
435.641 0.0535220
444.050 0.0582448
452.459 0.0817258
454.562 0.0953194
456.664 0.122738
457.715 0.153340
458.241 0.180985
458.766 0.228137
459.292 0.321752
459.555 0.409272
459.817 0.559108
460.080 0.849881
460.212 1.11089
460.343 1.53497
460.474 2.28934
460.540 2.90579
460.606 3.81376
460.672 5.21755
460.737 7.51423
460.803 11.4984
460.869 18.5973
460.934 29.7047
461.000 37.0996
461.066 29.6919
461.132 18.6050
461.181 12.8733
461.231 9.18023
461.281 6.78206
461.330 5.18501
461.429 3.29298
461.529 2.27822
461.628 1.67850
461.727 1.29709
461.926 0.860105
462.125 0.630300
462.323 0.495674
462.720 0.354210
463.117 0.287360
463.515 0.252654
464.309 0.225393
465.898 0.237520
467.486 0.303139
469.075 0.456935
469.869 0.609910
470.664 0.884408
471.061 1.11170
471.458 1.45284
471.855 1.99877
472.252 2.95290
472.650 4.85195
472.848 6.59823
473.047 9.50425
473.245 14.8650
473.345 19.4092
473.444 26.3517
473.543 37.6372
473.593 46.0752
473.643 57.4662
473.692 73.2747
473.742 95.6267
473.791 127.800
473.841 173.897
473.921 278.360
474.000 348.062
474.080 278.300
474.159 173.829
474.210 127.042
474.260 94.6114
474.361 56.5217
474.462 36.8657
474.563 25.7484
474.664 18.9270
474.765 14.4782
474.967 9.24083
475.169 6.40829
475.370 4.71059
475.774 2.86875
476.178 1.94554
476.582 1.41906
476.986 1.09120
477.389 0.873684
478.197 0.612743
479.004 0.469145
480.619 0.327351
482.234 0.265417
483.849 0.236306
487.080 0.220475
493.540 0.260729
500.000 0.374474
503.235 0.475152
506.470 0.629677
509.705 0.881588
512.940 1.33120
514.558 1.70123
516.175 2.25307
517.793 3.12823
519.410 4.63784
520.219 5.84046
521.028 7.57838
521.836 10.2208
522.645 14.5118
523.454 22.1333
523.858 28.3487
524.263 37.4807
524.667 51.5592
525.071 74.4939
525.476 114.041
525.880 184.078
526.290 294.407
526.700 367.705
527.110 293.866
527.520 183.549
527.990 105.576
528.460 65.4089
528.931 43.6654
529.401 30.9522
529.871 22.9825
530.341 17.6973
531.281 11.3815
532.221 7.91518
533.162 5.81915
535.042 3.53238
536.923 2.39690
538.803 1.80439
539.744 1.67358
540.684 1.75834
541.154 2.03159
541.389 2.32745
541.624 2.86164
541.859 3.92371
541.977 4.87804
542.094 6.41467
542.212 9.09755
542.329 14.3194
542.388 18.9357
542.447 26.1471
542.506 37.9357
542.564 57.4022
542.632 91.2859
542.700 113.888
542.768 91.2788
542.836 57.3823
542.885 40.4651
542.934 29.3383
542.983 22.0093
543.032 17.0623
543.130 11.1162
543.228 7.87830
543.326 5.94240
543.424 4.69879
543.621 3.25410
543.817 2.47718
544.013 2.00974
544.405 1.49196
545.190 1.05173
545.975 0.854216
547.545 0.654174
549.115 0.540388
552.254 0.400936
555.394 0.314158
561.672 0.211206
567.951 0.154056
574.230 0.119829
580.509 0.100342
583.649 0.0968624
586.788 0.104038
588.358 0.120481
589.143 0.138298
589.928 0.171598
590.712 0.242638
591.105 0.312043
591.497 0.434905
591.890 0.683303
592.086 0.915096
592.282 1.30706
592.478 2.04669
592.576 2.68882
592.675 3.69415
592.773 5.38587
592.871 8.51545
592.920 11.1429
592.969 15.0428
593.018 21.0165
593.067 30.1489
593.134 48.2130
593.200 60.2329
593.267 48.1887
593.333 30.1548
593.393 19.4636
593.453 13.1294
593.513 9.29893
593.573 6.88173
593.692 4.16891
593.812 2.78742
593.932 1.99614
594.051 1.50399
594.290 0.950413
594.530 0.663499
594.769 0.496119
595.248 0.318685
595.726 0.231445
596.205 0.182130
597.162 0.131074
598.119 0.106306
599.077 0.0922735
600.991 0.0774778
604.820 0.0656906
608.649 0.0612926
616.307 0.0608467
623.965 0.0699359
631.623 0.0969636
635.451 0.126176
639.280 0.180852
641.195 0.227381
643.109 0.298685
645.024 0.415665
646.938 0.627047
647.896 0.803298
648.853 1.06947
649.810 1.49885
650.767 2.25789
651.246 2.87759
651.724 3.79448
652.203 5.23332
652.682 7.67747
653.160 12.3245
653.400 16.3926
653.639 22.8179
653.878 33.7698
653.998 42.3416
654.117 54.4340
654.237 72.1273
654.357 98.9504
654.476 141.040
654.596 207.374
654.748 331.609
654.900 414.305
655.052 331.461
655.204 207.222
655.327 139.430
655.450 97.0396
655.573 70.2922
655.696 52.8101
655.942 32.5480
656.187 21.9021
656.433 15.6871
656.679 11.7686
657.171 7.30826
657.662 4.96999
658.154 3.59698
658.646 2.72335
659.137 2.13387
660.121 1.41251
661.104 1.00504
662.087 0.752665
663.071 0.585621
665.037 0.385207
667.004 0.274125
668.971 0.206171
670.937 0.161570
674.871 0.108442
678.804 0.0791287
682.737 0.0611973
686.670 0.0493913
694.537 0.0352123
702.404 0.0272671
718.137 0.0190311
733.870 0.0150859
749.603 0.0131563
765.336 0.0131961
773.203 0.0160598
775.170 0.0185995
777.136 0.0250516
778.119 0.0333571
779.103 0.0553124
779.594 0.0837476
779.840 0.110581
780.086 0.156667
780.332 0.245997
780.455 0.325816
780.578 0.454734
780.701 0.681830
780.824 1.13321
780.885 1.54176
780.946 2.19627
781.008 3.30342
781.069 5.21086
781.135 8.33116
781.200 10.4077
781.265 8.32684
781.331 5.21190
781.400 3.13481
781.469 2.00711
781.537 1.37250
781.606 0.991641
781.675 0.747912
781.744 0.583984
781.882 0.385449
782.020 0.274893
782.157 0.207441
782.433 0.133004
782.708 0.0951898
782.984 0.0734923
783.535 0.0510396
784.637 0.0349569
785.738 0.0303098
787.942 0.0308541
790.146 0.0388587
792.350 0.0588652
793.452 0.0792968
794.554 0.116617
795.105 0.147949
795.656 0.195519
796.207 0.272790
796.758 0.410619
797.033 0.524152
797.309 0.693618
797.584 0.962679
797.859 1.42719
798.135 2.33371
798.273 3.14977
798.410 4.47580
798.548 6.83650
798.617 8.76493
798.686 11.5986
798.755 15.9799
798.824 23.1226
798.893 35.4945
798.961 57.4639
799.031 91.9655
799.100 114.924
799.169 91.9181
799.239 57.4720
799.288 40.5729
799.337 29.3681
799.386 21.9193
799.435 16.8466
799.533 10.7109
799.631 7.35432
799.729 5.34021
799.827 4.04720
800.023 2.54857
800.219 1.74913
800.415 1.27462
800.611 0.970219
800.807 0.763693
801.199 0.509418
801.591 0.364894
801.984 0.275000
802.376 0.215316
803.160 0.143480
803.944 0.103547
804.728 0.0790753
805.513 0.0629975
807.081 0.0438424
808.649 0.0332910
811.786 0.0226437
814.923 0.0176287
818.060 0.0148627
824.334 0.0120614
836.882 0.0100276
849.429 0.00938194
874.524 0.00935448
899.619 0.0103036
924.715 0.0124963
949.810 0.0174330
962.357 0.0225087
974.905 0.0325118
981.179 0.0421216
987.453 0.0599689
990.589 0.0759581
993.726 0.102851
996.863 0.155319
998.432 0.203843
1000.00 0.286624
1000.85 0.358958
1001.70 0.467610
1002.55 0.642400
1003.40 0.951190
1003.82 1.20479
1004.24 1.58128
1004.67 2.17894
1005.09 3.20688
1005.52 5.21604
1005.73 7.02099
1005.94 9.95844
1006.05 12.1681
1006.15 15.1937
1006.26 19.4793
1006.37 25.8023
1006.47 35.6005
1006.58 51.6825
1006.68 79.7086
1006.74 101.280
1006.79 130.051
1006.90 208.102
1007.00 260.172
1007.11 208.083
1007.21 130.046
1007.29 88.3039
1007.38 61.9211
1007.46 45.1358
1007.54 34.0961
1007.71 21.2306
1007.87 14.4410
1008.04 10.4829
1008.21 8.00443
1008.54 5.27962
1008.87 4.06931
1009.20 3.92864
1009.37 4.47631
1009.53 6.05614
1009.62 7.73536
1009.70 10.7510
1009.78 16.5728
1009.86 28.1847
1009.93 44.2854
1010.00 54.7961
1010.07 43.9234
1010.14 27.9581
1010.22 16.6105
1010.29 10.7663
1010.37 7.55040
1010.45 5.63924
1010.60 3.59921
1010.75 2.58866
1010.91 2.00534
1011.06 1.63666
1011.37 1.19926
1011.99 0.787774
1012.60 0.590423
1013.84 0.398276
1015.07 0.307790
1017.54 0.232515
1020.00 0.214857
1022.47 0.227472
1024.94 0.268306
1027.40 0.361998
1028.02 0.411130
1028.64 0.504663
1028.95 0.603267
1029.25 0.821184
1029.41 1.05922
1029.56 1.55211
1029.64 2.02398
1029.72 2.83381
1029.79 4.34348
1029.87 7.31560
1029.94 11.4770
1030.00 14.1985
1030.07 11.4195
1030.13 7.33446
1030.18 5.36632
1030.22 4.06817
1030.31 2.57235
1030.40 1.82937
1030.49 1.42064
1030.67 1.02140
1030.84 0.847224
1031.20 0.717714
1031.55 0.688214
1032.98 0.805828
1034.40 1.09576
1035.82 1.62792
1036.53 2.06485
1037.24 2.70993
1037.96 3.71885
1038.67 5.42269
1039.02 6.75311
1039.38 8.63083
1039.73 11.4147
1040.09 15.7512
1040.44 23.0473
1040.80 36.4443
1040.98 47.6565
1041.16 64.2707
1041.33 89.5471
1041.51 127.801
1041.76 204.706
1042.00 256.034
1042.25 204.597
1042.49 127.693
1042.76 74.7812
1043.03 46.9940
1043.30 31.6360
1043.57 22.5809
1043.84 16.8357
1044.11 13.0153
1044.65 8.41676
1045.19 5.87055
1045.73 4.32534
1046.82 2.62403
1047.90 1.76040
1048.98 1.26338
1050.06 0.951581
1051.14 0.743273
1053.30 0.490912
1055.46 0.349827
1057.63 0.263021
1059.79 0.205846
1064.11 0.137612
1068.44 0.100072
1072.76 0.0773049
1077.09 0.0625431
1085.73 0.0454585
1094.38 0.0367354
1111.68 0.0302287
1128.98 0.0316276
1146.28 0.0412310
1154.92 0.0517690
1163.57 0.0707281
1172.22 0.109636
1176.55 0.151303
1178.71 0.206061
1179.25 0.242995
1179.79 0.328243
1180.06 0.429170
1180.19 0.518564
1180.33 0.663284
1180.46 0.920724
1180.60 1.44350
1180.67 1.93304
1180.73 2.72914
1180.80 4.15018
1180.87 6.69225
1180.94 10.6233
1181.00 13.1915
1181.07 10.5626
1181.13 6.69735
1181.17 4.93635
1181.21 3.74345
1181.30 2.31897
1181.38 1.58423
1181.46 1.17234
1181.63 0.751712
1181.79 0.557232
1182.12 0.392206
1182.45 0.328961
1183.11 0.288042
1183.77 0.282948
1186.41 0.344418
1189.06 0.474207
1191.70 0.710530
1193.02 0.905202
1194.34 1.19468
1195.66 1.65242
1196.98 2.43674
1197.64 3.05870
1198.30 3.95103
1198.96 5.29644
1199.62 7.45630
1200.28 11.2342
1200.61 14.2585
1200.94 18.6283
1201.27 25.2132
1201.60 35.6158
1201.93 52.8207
1202.26 81.7785
1202.63 131.269
1203.00 164.406
1203.37 131.173
1203.74 81.6857
1204.03 55.4424
1204.32 38.9023
1204.61 28.3573
1204.90 21.4074
1205.48 13.2848
1206.06 8.97849
1206.64 6.44790
1207.22 4.84875
1208.38 3.02159
1209.54 2.05984
1210.70 1.49430
1211.86 1.13395
1213.02 0.890501
1215.34 0.592290
1217.66 0.423849
1219.99 0.319550
1222.31 0.250681
1226.95 0.168592
1231.59 0.124528
1236.23 0.104171
1237.39 0.106028
1238.55 0.120335
1239.13 0.143101
1239.71 0.206063
1240.00 0.286281
1240.14 0.359622
1240.29 0.480576
1240.43 0.699907
1240.51 0.883965
1240.58 1.15605
1240.65 1.59288
1240.72 2.32088
1240.80 3.66222
1240.87 6.16768
1240.94 9.83831
1241.00 12.2310
1241.07 9.77925
1241.13 6.16763
1241.20 3.73746
1241.27 2.42955
1241.34 1.67876
1241.41 1.23283
1241.54 0.750398
1241.68 0.515749
1241.82 0.383602
1241.95 0.303196
1242.22 0.213568
1242.77 0.140825
1243.32 0.112444
1244.41 0.0906859
1245.50 0.0839085
1246.59 0.0851034
1247.69 0.100396
1248.23 0.124304
1248.78 0.189404
1249.05 0.271453
1249.19 0.346278
1249.32 0.467919
1249.46 0.688014
1249.60 1.13515
1249.67 1.55913
1249.73 2.25344
1249.80 3.47891
1249.87 5.71622
1249.94 9.14139
1250.00 11.3801
1250.07 9.08622
1250.13 5.71624
1250.21 3.29339
1250.28 2.05409
1250.36 1.38691
1250.44 0.998074
1250.59 0.593820
1250.74 0.402403
1250.89 0.296451
1251.04 0.232629
1251.34 0.162187
1251.95 0.105496
1252.56 0.0833238
1253.77 0.0655491
1254.98 0.0581158
1259.83 0.0473202
1269.53 0.0400814
1288.92 0.0371564
1308.32 0.0423197
1327.71 0.0568088
1337.41 0.0700437
1347.11 0.0906185
1356.80 0.124388
1366.50 0.184764
1371.35 0.234401
1376.20 0.308256
1381.05 0.424942
1383.47 0.510422
1385.90 0.624961
1388.32 0.783365
1390.75 1.01082
1393.17 1.35376
1395.59 1.90429
1398.02 2.86583
1399.23 3.63612
1400.44 4.74904
1401.65 6.42582
1402.87 9.07382
1404.08 13.4499
1405.29 20.8016
1406.65 33.2624
1408.00 41.5302
1409.36 33.1813
1410.71 20.7233
1412.12 12.5037
1413.53 8.01445
1414.94 5.47439
1416.36 3.94236
1417.77 2.96044
1419.18 2.29921
1422.00 1.49628
1424.82 1.04850
1427.65 0.774825
1433.29 0.472402
1438.94 0.318476
1444.58 0.230212
1450.23 0.177090
1453.05 0.165955
1454.46 0.189704
1454.81 0.217778
1455.16 0.290491
1455.34 0.377172
1455.52 0.566584
1455.61 0.756865
1455.69 1.09923
1455.78 1.78180
1455.83 2.37785
1455.87 3.25607
1455.94 5.14065
1456.00 6.37092
1456.07 5.10973
1456.13 3.25495
1456.18 2.29601
1456.23 1.68402
1456.33 1.00702
1456.42 0.682823
1456.52 0.507562
1456.71 0.336546
1456.91 0.259283
1457.30 0.193030
1457.68 0.165514
1459.24 0.131086
1462.34 0.111327
1468.55 0.0909664
1480.96 0.0716623
1487.17 0.0724442
1490.27 0.0781990
1493.38 0.0920120
1496.48 0.125356
1498.03 0.159882
1499.58 0.223477
1500.36 0.277064
1501.14 0.358549
1501.91 0.490928
1502.69 0.726862
1503.08 0.920857
1503.46 1.20987
1503.85 1.66745
1504.24 2.45452
1504.63 3.97998
1504.82 5.34283
1505.02 7.54202
1505.21 11.4097
1505.40 19.0742
1505.50 25.9809
1505.60 37.0215
1505.70 55.5631
1505.79 86.8942
1505.90 139.190
1506.00 173.571
1506.11 138.644
1506.21 86.8773
1506.29 59.6941
1506.37 42.2386
1506.45 30.9817
1506.53 23.4987
1506.69 14.6783
1506.85 9.98639
1507.01 7.19723
1507.17 5.43444
1507.49 3.40420
1507.81 2.32947
1508.13 1.69754
1508.44 1.29401
1508.76 1.02087
1509.40 0.685244
1510.04 0.495335
1510.68 0.377202
1511.32 0.298941
1512.59 0.204623
1513.87 0.152048
1516.43 0.0982536
1518.98 0.0723860
1521.53 0.0577618
1526.64 0.0422585
1536.86 0.0293717
1547.07 0.0235839
1567.51 0.0180847
1587.94 0.0159943
1608.37 0.0166055
1618.59 0.0185729
1628.80 0.0229755
1639.02 0.0332801
1644.13 0.0438632
1649.23 0.0633731
1651.79 0.0798839
1654.34 0.105141
1656.90 0.146563
1659.45 0.221516
1660.73 0.284144
1662.00 0.378982
1663.28 0.532595
1664.56 0.805855
1665.20 1.03059
1665.83 1.36485
1666.47 1.89512
1667.11 2.80662
1667.43 3.53376
1667.75 4.57974
1668.07 6.16538
1668.39 8.73017
1668.55 10.6545
1668.71 13.2767
1668.87 16.9677
1669.03 22.3266
1669.19 30.5745
1669.35 43.7814
1669.51 66.3615
1669.67 105.369
1669.83 168.902
1670.00 210.957
1670.17 168.464
1670.34 105.336
1670.44 77.7317
1670.54 58.5199
1670.74 35.4930
1670.95 23.3778
1671.15 16.4250
1671.36 12.1235
1671.56 9.29684
1671.97 5.95039
1672.38 4.12762
1672.79 3.03644
1673.60 1.85820
1674.42 1.29126
1675.23 1.04148
1675.64 1.04406
1676.05 1.25466
1676.25 1.57870
1676.46 2.36049
1676.56 3.19131
1676.66 4.76001
1676.71 6.09552
1676.76 8.10700
1676.82 11.2277
1676.87 16.0893
1676.93 25.4760
1677.00 31.7503
1677.07 25.4586
1677.13 16.0537
1677.19 10.5889
1677.25 7.35583
1677.31 5.37071
1677.37 4.09820
1677.48 2.64860
1677.60 1.89544
1677.72 1.45645
1677.83 1.17782
1678.06 0.854504
1678.53 0.567138
1678.99 0.437410
1679.92 0.310703
1680.85 0.243879
1682.71 0.169155
1684.56 0.126913
1688.28 0.0809203
1691.99 0.0571447
1695.71 0.0431306
1699.42 0.0341509
1706.85 0.0236816
1714.28 0.0180157
1721.71 0.0145936
1736.56 0.0108254
1766.28 0.00782144
1795.99 0.00683596
1825.71 0.00675256
1855.42 0.00754559
1870.28 0.00853079
1885.14 0.0105531
1892.56 0.0126665
1899.99 0.0175085
1903.71 0.0234748
1907.42 0.0392771
1909.28 0.0604086
1910.21 0.0811213
1911.14 0.118281
1912.06 0.195817
