Rb-87(n,g) ENDF/B-VII.1
Energy(eV) XS(b)
1.00000E-05 6.03517
1.25000E-05 5.39802
1.50000E-05 4.92770
2.00000E-05 4.26751
2.75000E-05 3.63934
3.50000E-05 3.22593
4.25000E-05 2.92749
5.00000E-05 2.69901
6.25000E-05 2.41407
7.50000E-05 2.20373
0.000100000 1.90849
0.000125000 1.70701
0.000150000 1.55828
0.000200000 1.34951
0.000275000 1.15086
0.000350000 1.02013
0.000425000 0.925754
0.000500000 0.853504
0.000625000 0.763397
0.000750000 0.696884
0.00100000 0.603520
0.00125000 0.539805
0.00150000 0.492773
0.00200000 0.426755
0.00275000 0.363939
0.00350000 0.322598
0.00425000 0.292754
0.00500000 0.269907
0.00625000 0.241413
0.00750000 0.220380
0.0100000 0.190857
0.0125000 0.170710
0.0150000 0.155838
0.0200000 0.134962
0.0253000 0.119999
0.0314750 0.107588
0.0376500 0.0983734
0.0500000 0.0853686
0.0625000 0.0763601
0.0750000 0.0697107
0.100000 0.0603777
0.125000 0.0540093
0.150000 0.0493089
0.200000 0.0427119
0.275000 0.0364367
0.350000 0.0323081
0.500000 0.0270484
0.750000 0.0221088
1.00000 0.0191675
1.50000 0.0156842
2.00000 0.0136124
2.75000 0.0116466
3.50000 0.0103575
5.00000 0.00872286
7.50000 0.00720126
10.0000 0.00630638
15.0000 0.00526695
20.0000 0.00466775
27.5000 0.00412438
35.0000 0.00379195
50.0000 0.00342501
75.0000 0.00321364
100.000 0.00325231
150.000 0.00388040
175.000 0.00456335
200.000 0.00574189
216.758 0.00714065
233.516 0.00998730
241.895 0.0131655
246.085 0.0160638
250.274 0.0211062
254.464 0.0315332
256.559 0.0417807
258.653 0.0603954
259.701 0.0760898
260.748 0.100122
261.795 0.139702
262.843 0.211910
263.366 0.272801
263.890 0.365860
264.414 0.518497
264.938 0.794981
265.199 1.02633
265.461 1.37693
265.723 1.94578
265.985 2.95888
266.116 3.79305
266.247 5.03613
266.378 7.00712
266.509 10.4051
266.640 17.0158
266.705 22.9516
266.770 32.5578
266.836 49.5913
266.869 63.4153
266.901 83.6575
266.934 114.822
266.967 165.129
267.000 251.080
267.032 401.616
267.066 643.170
267.100 804.438
267.134 643.192
267.168 401.671
267.195 272.887
267.221 191.357
267.248 139.402
267.275 105.287
267.328 65.2706
267.381 44.1075
267.435 31.6683
267.488 23.8081
267.595 14.8196
267.701 10.0923
267.808 7.30959
267.915 5.53638
268.021 4.33813
268.235 2.87012
268.448 2.03960
268.662 1.52468
268.875 1.18375
269.302 0.774269
269.729 0.547246
270.155 0.408435
270.582 0.317442
271.436 0.209324
272.289 0.150035
273.143 0.114075
273.996 0.0906667
275.703 0.0631221
277.410 0.0482440
280.825 0.0337962
284.239 0.0275940
287.653 0.0247290
294.481 0.0232758
308.138 0.0276673
321.795 0.0397718
328.623 0.0505294
335.452 0.0671828
342.280 0.0946942
349.109 0.144829
352.523 0.186997
355.937 0.251284
359.351 0.356410
362.765 0.546133
364.472 0.704357
366.180 0.943595
367.887 1.33038
368.740 1.62026
369.594 2.01672
370.447 2.57933
371.301 3.41538
372.154 4.73548
373.008 6.99773
373.435 8.78843
373.862 11.3606
374.288 15.2385
374.715 21.4617
375.142 32.3256
375.355 41.0298
375.569 53.5960
375.782 72.5307
375.995 102.421
376.209 151.792
376.422 234.640
376.661 375.420
376.900 469.049
377.139 374.848
377.378 234.081
377.618 143.833
377.857 93.3883
378.097 64.3523
378.336 46.6245
378.576 35.1687
378.815 27.3974
379.294 17.8982
379.773 12.5674
380.252 9.29316
381.210 5.65890
382.168 3.79863
383.126 2.72268
384.084 2.04554
385.042 1.59224
386.958 1.04224
388.874 0.734216
390.790 0.544651
392.706 0.419819
396.538 0.270911
400.370 0.188939
404.202 0.139098
408.034 0.106574
415.697 0.0681517
423.361 0.0472162
431.025 0.0345845
438.689 0.0263920
454.017 0.0167815
469.345 0.0115871
484.672 0.00847376
500.000 0.00646621
523.059 0.00457020
546.118 0.00340911
592.235 0.00212612
638.352 0.00147570
684.470 0.00110608
730.587 0.000883380
776.705 0.000759869
799.763 0.000745583
822.822 0.000822988
845.881 0.00146722
851.645 0.00216910
857.410 0.00418757
860.292 0.00701024
863.175 0.0150244
864.616 0.0261383
865.337 0.0372158
866.057 0.0573936
866.778 0.100260
867.138 0.142574
867.498 0.218830
867.678 0.282316
867.859 0.378019
868.039 0.532250
868.219 0.804126
868.309 1.02567
868.399 1.35281
868.489 1.86471
868.579 2.72934
868.669 4.36350
868.714 5.78178
868.759 8.00353
868.804 11.7566
868.849 18.7000
868.872 24.5328
868.894 33.2236
868.917 46.5380
868.939 66.9882
868.970 107.259
869.000 133.992
869.030 107.121
869.061 66.9921
869.093 40.2074
869.125 25.6653
869.157 17.4816
869.189 12.5764
869.221 9.43086
869.253 7.31517
869.317 4.75410
869.381 3.32595
869.444 2.45472
869.572 1.49181
869.700 1.00047
869.828 0.716981
869.956 0.538839
870.084 0.419762
870.340 0.275265
870.595 0.194389
871.107 0.111776
871.618 0.0725921
872.130 0.0509803
873.153 0.0292008
874.176 0.0189921
875.199 0.0134026
877.245 0.00780459
881.336 0.00376959
885.428 0.00234413
893.612 0.00131409
901.796 0.000945525
918.163 0.000669818
934.530 0.000562661
967.265 0.000468811
1000.00 0.000421892
1125.00 0.000338002
1250.00 0.000299730
1500.00 0.000269195
2000.00 0.000283159
2452.97 0.000361756
2679.46 0.000442716
2905.94 0.000585968
3132.43 0.000878100
3245.67 0.00115870
3358.91 0.00165679
3415.53 0.00206855
3472.15 0.00268880
3528.77 0.00369057
3585.40 0.00547377
3613.71 0.00694402
3642.02 0.00914511
3670.33 0.0126593
3698.64 0.0187884
3712.79 0.0237293
3726.95 0.0309555
3741.10 0.0421219
3748.18 0.0501382
3755.26 0.0606860
3762.34 0.0749456
3769.42 0.0948538
3776.49 0.123768
3783.57 0.167863
3790.65 0.239400
3797.73 0.364702
3801.26 0.464206
3804.80 0.604816
3808.34 0.806634
3811.88 1.09473
3817.59 1.74976
3823.30 2.18307
3829.01 1.74300
3834.72 1.08824
3839.27 0.735963
3843.82 0.514187
3848.38 0.373533
3852.93 0.281236
3862.03 0.173867
3871.14 0.117223
3880.24 0.0840891
3889.34 0.0631615
3907.55 0.0393201
3925.76 0.0268190
3943.97 0.0194807
3962.17 0.0148170
3980.38 0.0116746
4016.80 0.00784241
4053.21 0.00569192
4089.63 0.00437337
4126.04 0.00351351
4198.87 0.00251681
4271.70 0.00201234
4417.36 0.00166342
4563.02 0.00183236
4635.85 0.00212950
4708.68 0.00266393
4781.51 0.00363507
4854.34 0.00556031
4890.76 0.00729248
4927.17 0.0100973
4963.59 0.0150557
4981.79 0.0190870
5000.00 0.0250075
5021.08 0.0360416
5042.15 0.0559957
5052.69 0.0723495
5063.23 0.0961448
5073.76 0.131538
5084.30 0.184074
5099.65 0.293540
5115.00 0.365290
5130.35 0.291260
5145.70 0.181876
5162.85 0.106102
5180.00 0.0664232
5197.15 0.0446891
5214.30 0.0318755
5231.45 0.0237993
5248.60 0.0184215
5282.91 0.0119711
5317.21 0.00841886
5351.51 0.00626579
5420.11 0.00390802
5488.71 0.00271966
5557.32 0.00204250
5694.52 0.00135027
5831.73 0.00103615
5968.93 0.000885083
6243.34 0.000816441
6517.75 0.000959522
6654.96 0.00113167
6792.16 0.00142376
6929.37 0.00194848
7066.57 0.00303915
7135.17 0.00413676
7203.78 0.00635103
7238.08 0.00866743
7255.23 0.0106463
7272.38 0.0138796
7289.53 0.0200658
7298.10 0.0257585
7306.68 0.0355041
7315.26 0.0546871
7319.54 0.0723236
7323.83 0.101859
7328.12 0.157077
7330.26 0.204663
7332.41 0.278639
7334.55 0.402120
7336.69 0.627817
7337.77 0.814828
7338.84 1.08986
7339.91 1.50440
7340.98 2.12878
7342.49 3.40126
7344.00 4.24940
7345.51 3.39972
7347.02 2.12756
7348.18 1.46279
7349.34 1.03716
7350.50 0.762876
7351.65 0.580935
7353.97 0.366681
7356.29 0.252393
7358.61 0.185119
7360.92 0.142476
7365.56 0.0938482
7370.19 0.0684584
7374.82 0.0537365
7384.09 0.0386296
7393.36 0.0319548
7402.63 0.0289948
7421.16 0.0282959
7439.70 0.0314874
7458.23 0.0377587
7476.77 0.0474998
7495.30 0.0615640
7527.65 0.0962625
7560.00 0.118906
7592.35 0.0947718
7624.70 0.0595085
7657.74 0.0366676
7690.78 0.0240567
7723.81 0.0168742
7756.85 0.0125344
7822.93 0.00791522
7889.00 0.00573693
7955.08 0.00462869
8021.15 0.00408324
8153.30 0.00397819
8285.45 0.00501540
8351.53 0.00616936
8417.60 0.00810158
8483.68 0.0114792
8516.71 0.0141391
8549.75 0.0178949
8582.79 0.0233699
8615.83 0.0316276
8648.86 0.0444574
8681.90 0.0644546
8724.95 0.102510
8768.00 0.127220
8811.05 0.101169
8854.10 0.0631162
8884.88 0.0444217
8915.66 0.0320791
8946.44 0.0239165
8977.22 0.0183799
9038.78 0.0117144
9100.34 0.00807727
9161.90 0.00590236
9223.47 0.00450781
9346.59 0.00290062
9469.71 0.00206486
9592.83 0.00163159
9654.39 0.00156027
9715.95 0.00172185
9746.73 0.00208517
9762.12 0.00248101
9777.51 0.00322896
9792.90 0.00485666
9800.60 0.00648450
9808.29 0.00944544
9812.14 0.0119289
9815.99 0.0156990
9819.83 0.0218263
9823.68 0.0327652
9825.61 0.0417866
9827.53 0.0552683
9829.45 0.0767090
9831.38 0.113808
9833.30 0.186504
9835.22 0.359514
9836.19 0.551756
9836.67 0.709887
9837.15 0.944262
9837.63 1.30963
9837.87 1.57246
9838.11 1.91423
9838.35 2.36962
9838.59 2.97972
9838.83 3.80595
9839.07 4.91526
9839.30 6.29511
9839.54 7.86444
9840.00 9.82339
9840.23 9.24237
9840.47 7.85675
9840.93 4.90908
9841.24 3.53057
9841.55 2.59372
9842.17 1.51997
9842.80 0.978918
9843.42 0.677929
9844.04 0.495104
9844.66 0.376845
9845.90 0.238675
9847.14 0.164391
9848.39 0.120069
9850.87 0.0721721
9853.36 0.0482315
9855.84 0.0345971
9858.33 0.0260993
9860.81 0.0204530
9865.79 0.0136481
9870.76 0.00986038
9875.73 0.00753698
9880.70 0.00600923
9890.64 0.00418670
9900.58 0.00318020
9920.47 0.00215914
9940.35 0.00167230
9960.23 0.00139891
10000.0 0.00111220
10086.4 0.000876612
10172.8 0.000827602
10216.0 0.000879849
10259.2 0.00110048
10280.8 0.00143292
10291.6 0.00177120
10302.4 0.00239467
10313.2 0.00373558
10318.6 0.00507432
10324.0 0.00751619
10326.7 0.00957287
10329.4 0.0127116
10332.1 0.0178488
10334.8 0.0271246
10336.1 0.0348599
10337.5 0.0465501
10338.8 0.0654301
10340.2 0.0988632
10341.5 0.166727
10342.2 0.231069
10342.9 0.339096
10343.6 0.548822
10343.9 0.734276
10344.2 1.01914
10344.6 1.52179
10344.8 1.91932
10344.9 2.44658
10345.1 3.26539
10345.3 4.52331
10345.4 6.52554
10345.6 9.50229
10345.8 15.2577
10346.0 19.1174
10346.1 17.8762
10346.2 15.2570
10346.4 9.50157
10346.6 6.23678
10346.8 4.34365
10346.9 3.15022
10347.1 2.36975
10347.5 1.44557
10347.8 0.976478
10348.2 0.695215
10348.5 0.523304
10349.2 0.326518
10349.9 0.221641
10350.6 0.160203
10351.2 0.121188
10351.9 0.0952084
10353.3 0.0629303
10354.7 0.0448351
10356.1 0.0335451
10357.4 0.0261289
10360.2 0.0171962
10362.9 0.0122489
10365.7 0.00922620
10368.4 0.00724539
10373.9 0.00489325
10379.4 0.00360323
10390.4 0.00230990
10401.4 0.00170713
10412.4 0.00137881
10434.4 0.00105348
10478.4 0.000830660
10522.4 0.000771322
10610.4 0.000804052
10698.4 0.000982443
10786.4 0.00142872
10830.3 0.00188561
10874.3 0.00271519
10896.3 0.00340521
10918.3 0.00444180
10940.3 0.00609909
10962.3 0.00898496
10984.3 0.0146892
10995.3 0.0198908
11006.3 0.0284606
11017.3 0.0440442
11022.8 0.0570533
11028.3 0.0766203
11033.8 0.107743
11036.6 0.130505
11039.3 0.160724
11042.1 0.201624
11044.8 0.257959
11047.6 0.336392
11050.3 0.444292
11055.2 0.708870
11060.0 0.884165
11062.4 0.832082
11064.9 0.708063
11069.7 0.443511
11075.1 0.258599
11080.6 0.161839
11086.0 0.108797
11091.4 0.0775068
11096.9 0.0577762
11102.3 0.0446304
11113.2 0.0288499
11124.0 0.0201422
11134.9 0.0148616
11156.6 0.00906159
11178.3 0.00611954
11200.1 0.00442812
11221.8 0.00336697
11243.5 0.00265772
11286.9 0.00179746
11330.4 0.00131476
11417.3 0.000818541
11504.2 0.000579419
11591.1 0.000444570
11764.9 0.000303017
11938.6 0.000231856
12112.4 0.000189931
12460.0 0.000144667
12460.0 0.0528273
15000.0 0.0453375
17000.0 0.0409004
20000.0 0.0358200
25000.0 0.0299817
30000.0 0.0260272
35000.0 0.0230267
40000.0 0.0207855
50000.0 0.0176926
60000.0 0.0156281
70000.0 0.0143269
80000.0 0.0132652
99999.9 0.0117998
100000 0.0117971
150000 0.00964721
200000 0.00855319
250000 0.00783346
300000 0.00727629
400000 0.00641111
407677 0.00637504
500000 0.00417293
700000 0.00335407
800000 0.00317405
855616 0.00311296
900000 0.00303551
1.00000E+06 0.00296613
1.19621E+06 0.00296861
1.25000E+06 0.00296922
1.47998E+06 0.00306065
1.47998E+06 0.00306065
1.50000E+06 0.00304803
1.59682E+06 0.00305272
1.59682E+06 0.00305271
1.75000E+06 0.00226834
1.76121E+06 0.00225325
2.00000E+06 0.00196273
2.44303E+06 0.00203752
2.58566E+06 0.00200851
2.58567E+06 0.00200851
2.84383E+06 0.00197675
3.00000E+06 0.00181908
3.07115E+06 0.00170065
3.14229E+06 0.00159237
3.14229E+06 0.00159237
3.19590E+06 0.00151685
3.24951E+06 0.00144608
3.30311E+06 0.00137969
3.35672E+06 0.00131734
3.41033E+06 0.00125873
3.46393E+06 0.00120359
3.51754E+06 0.00115165
3.57115E+06 0.00110269
3.62475E+06 0.00105649
3.67836E+06 0.00101287
3.73197E+06 0.000971635
3.78557E+06 0.000932635
3.83918E+06 0.000895716
3.89279E+06 0.000860741
3.94639E+06 0.000827582
4.00000E+06 0.000796123
4.01563E+06 0.000791638
4.03125E+06 0.000787196
4.04688E+06 0.000782795
4.06250E+06 0.000778436
4.07813E+06 0.000774118
4.09375E+06 0.000769840
4.10938E+06 0.000765602
4.12500E+06 0.000761403
4.14063E+06 0.000757243
4.15625E+06 0.000753122
4.17188E+06 0.000749038
4.18750E+06 0.000744991
4.20313E+06 0.000740981
4.21875E+06 0.000737008
4.23438E+06 0.000733070
4.25000E+06 0.000729168
4.26563E+06 0.000725301
4.28125E+06 0.000721468
4.29688E+06 0.000717669
4.31250E+06 0.000713904
4.32813E+06 0.000710173
4.34375E+06 0.000706474
4.35938E+06 0.000702808
4.37500E+06 0.000699173
4.39063E+06 0.000695571
4.40625E+06 0.000691999
4.42188E+06 0.000688459
4.43750E+06 0.000684949
4.45313E+06 0.000681469
4.46875E+06 0.000678019
4.48438E+06 0.000674598
4.50000E+06 0.000671206
4.51563E+06 0.000667844
4.53125E+06 0.000664509
4.54688E+06 0.000661203
4.56250E+06 0.000657924
4.57813E+06 0.000654672
4.59375E+06 0.000651448
4.60938E+06 0.000648251
4.62500E+06 0.000645079
4.64063E+06 0.000641934
4.65625E+06 0.000638815
4.67188E+06 0.000635722
4.68750E+06 0.000632653
4.70313E+06 0.000629610
4.71875E+06 0.000626591
4.73438E+06 0.000623597
4.75000E+06 0.000620626
4.76563E+06 0.000617680
4.78125E+06 0.000614757
4.79688E+06 0.000611857
4.81250E+06 0.000608981
4.82813E+06 0.000606127
4.84375E+06 0.000603296
4.85938E+06 0.000600487
4.87500E+06 0.000597700
4.89063E+06 0.000594935
4.90625E+06 0.000592191
4.92188E+06 0.000589469
4.93750E+06 0.000586768
4.95313E+06 0.000584087
4.96875E+06 0.000581427
4.98438E+06 0.000578788
5.00000E+06 0.000576169
5.06250E+06 0.000565937
5.12500E+06 0.000556010
5.18750E+06 0.000546373
5.25000E+06 0.000537016
5.31250E+06 0.000527928
5.37500E+06 0.000519096
5.43750E+06 0.000510512
5.50000E+06 0.000502166
5.56250E+06 0.000494048
5.62500E+06 0.000486150
5.68750E+06 0.000478463
5.75000E+06 0.000470980
5.81250E+06 0.000463693
5.87500E+06 0.000456595
5.93750E+06 0.000449679
6.00000E+06 0.000442938
6.09738E+06 0.000431462
6.19477E+06 0.000420458
6.29215E+06 0.000409900
6.38953E+06 0.000399763
6.53867E+06 0.000385004
6.68780E+06 0.000371105
6.84390E+06 0.000357403
7.00000E+06 0.000344500
7.11881E+06 0.000335077
7.23762E+06 0.000326062
7.36047E+06 0.000317143
7.48331E+06 0.000308610
7.61033E+06 0.000300168
7.73734E+06 0.000292092
7.86867E+06 0.000284102
8.00000E+06 0.000276458
8.04268E+06 0.000275346
8.08535E+06 0.000274243
8.13534E+06 0.000272965
8.18533E+06 0.000271701
8.23532E+06 0.000270450
8.28532E+06 0.000269212
8.33531E+06 0.000267988
8.38530E+06 0.000266776
8.43529E+06 0.000265577
8.48528E+06 0.000264390
8.54558E+06 0.000263687
8.60587E+06 0.000262992
8.66617E+06 0.000262303
8.72646E+06 0.000261620
8.79485E+06 0.000260854
8.86323E+06 0.000260096
8.93162E+06 0.000259345
9.00000E+06 0.000258603
9.06085E+06 0.000262676
9.12171E+06 0.000266786
9.18256E+06 0.000270932
9.24342E+06 0.000275114
9.30427E+06 0.000279333
9.36512E+06 0.000283589
9.42598E+06 0.000287881
9.48683E+06 0.000292209
9.55098E+06 0.000296812
9.61512E+06 0.000301456
9.67927E+06 0.000306140
9.74342E+06 0.000310866
9.80756E+06 0.000315634
9.87171E+06 0.000320442
9.93585E+06 0.000325292
1.00000E+07 0.000330183
1.00124E+07 0.000332069
1.00247E+07 0.000333962
1.00371E+07 0.000335865
1.00494E+07 0.000337776
1.00819E+07 0.000342845
1.01144E+07 0.000347973
1.01144E+07 0.000347975
1.01698E+07 0.000356846
1.02251E+07 0.000365894
1.02805E+07 0.000375122
1.03358E+07 0.000384530
1.03912E+07 0.000394123
1.04465E+07 0.000403902
1.05019E+07 0.000413869
1.05572E+07 0.000424029
1.06126E+07 0.000434383
1.06679E+07 0.000444934
1.07233E+07 0.000455684
1.07786E+07 0.000466637
1.08340E+07 0.000477795
1.08893E+07 0.000489161
1.09447E+07 0.000500738
1.10000E+07 0.000512528
1.10306E+07 0.000520819
1.10611E+07 0.000529221
1.10917E+07 0.000537735
1.11223E+07 0.000546362
1.11529E+07 0.000555102
1.11834E+07 0.000563958
1.12140E+07 0.000572931
1.12446E+07 0.000582018
1.12751E+07 0.000591228
1.13057E+07 0.000600557
1.13363E+07 0.000610008
1.13668E+07 0.000619582
1.13974E+07 0.000629279
1.14280E+07 0.000639102
1.14585E+07 0.000649051
1.14891E+07 0.000659125
1.15210E+07 0.000668255
1.15530E+07 0.000677483
1.15849E+07 0.000686813
1.16168E+07 0.000696245
1.16488E+07 0.000705779
1.16807E+07 0.000715418
1.17126E+07 0.000725162
1.17446E+07 0.000735011
1.17765E+07 0.000744970
1.18084E+07 0.000755033
1.18404E+07 0.000765204
1.18723E+07 0.000775484
1.19042E+07 0.000785875
1.19361E+07 0.000796376
1.19681E+07 0.000806989
1.20000E+07 0.000817714
1.20581E+07 0.000827925
1.21162E+07 0.000838213
1.21744E+07 0.000848579
1.22325E+07 0.000859023
1.22906E+07 0.000869545
1.23487E+07 0.000880145
1.24068E+07 0.000890824
1.24650E+07 0.000901580
1.25231E+07 0.000912417
1.25812E+07 0.000923332
1.26393E+07 0.000934327
1.26974E+07 0.000945402
1.27556E+07 0.000956557
1.28137E+07 0.000967791
1.28718E+07 0.000979106
1.29299E+07 0.000990499
1.30000E+07 0.00100435
1.31250E+07 0.00100536
1.32500E+07 0.00100636
1.33750E+07 0.00100736
1.35000E+07 0.00100835
1.36250E+07 0.00100932
1.37500E+07 0.00101029
1.38750E+07 0.00101126
1.40000E+07 0.00101221
1.41250E+07 0.00100484
1.42500E+07 0.000997593
1.43750E+07 0.000990459
1.45000E+07 0.000983436
1.46250E+07 0.000976523
1.47500E+07 0.000969717
1.48750E+07 0.000963015
1.50000E+07 0.000956415
1.51614E+07 0.000947475
1.53227E+07 0.000938712
1.54920E+07 0.000929699
1.56614E+07 0.000920871
1.58307E+07 0.000912219
1.60000E+07 0.000903740
1.61857E+07 0.000897180
1.63714E+07 0.000890741
1.66857E+07 0.000880110
1.70000E+07 0.000869801
1.73130E+07 0.000864840
1.73345E+07 0.000864504
1.73559E+07 0.000864169
1.73774E+07 0.000863834
1.73989E+07 0.000863500
1.74204E+07 0.000863166
1.74418E+07 0.000862833
1.74633E+07 0.000862500
1.74848E+07 0.000862168
1.75062E+07 0.000861837
1.75277E+07 0.000861506
1.75492E+07 0.000861175
1.75706E+07 0.000860845
1.75921E+07 0.000860515
1.76136E+07 0.000860186
1.76350E+07 0.000859858
1.76565E+07 0.000859530
1.76780E+07 0.000859203
1.76994E+07 0.000858876
1.77209E+07 0.000858550
1.77424E+07 0.000858224
1.77639E+07 0.000857898
1.77853E+07 0.000857574
1.78068E+07 0.000857249
1.78283E+07 0.000856926
1.78497E+07 0.000856603
1.78712E+07 0.000856280
1.78927E+07 0.000855958
1.79141E+07 0.000855636
1.79356E+07 0.000855315
1.79571E+07 0.000854994
1.79785E+07 0.000854674
1.80000E+07 0.000854354
1.80503E+07 0.000854334
1.81006E+07 0.000854314
1.81509E+07 0.000854293
1.82012E+07 0.000854273
1.82515E+07 0.000854253
1.83018E+07 0.000854233
1.83522E+07 0.000854213
1.84025E+07 0.000854193
1.84528E+07 0.000854173
1.85031E+07 0.000854154
1.85534E+07 0.000854134
1.86037E+07 0.000854114
1.86540E+07 0.000854095
1.87043E+07 0.000854075
1.87546E+07 0.000854056
1.88049E+07 0.000854036
