Sr-87(n,tot) ENDF/B-VII.1
Energy(eV) XS(b)
1.00000E-05 802.759
1.25000E-05 718.739
1.50000E-05 656.718
2.00000E-05 569.660
2.75000E-05 486.825
3.50000E-05 432.309
4.25000E-05 392.954
5.00000E-05 362.825
6.25000E-05 325.251
7.50000E-05 297.515
0.000100000 258.583
0.000125000 232.014
0.000150000 212.403
0.000200000 184.874
0.000275000 158.682
0.000350000 141.445
0.000425000 129.001
0.000500000 119.476
0.000625000 107.596
0.000750000 98.8276
0.00100000 86.5203
0.00125000 78.1223
0.00150000 71.9238
0.00200000 63.2245
0.00275000 54.9494
0.00350000 49.5051
0.00425000 45.5761
0.00500000 42.5692
0.00625000 38.8208
0.00750000 36.0554
0.0100000 32.1767
0.0125000 29.5326
0.0150000 27.5830
0.0200000 24.8508
0.0253000 22.8969
0.0314750 21.2805
0.0376500 20.0836
0.0500000 18.4015
0.0625000 17.2432
0.0750000 16.3935
0.100000 15.2119
0.125000 14.4166
0.150000 13.8381
0.200000 13.0448
0.275000 12.3236
0.350000 11.8808
0.500000 11.3885
0.750000 11.0984
1.00000 11.1425
1.50000 11.9736
2.00000 14.3135
2.35680 18.2897
2.53520 22.0657
2.71360 28.5252
2.89200 40.9100
2.98120 51.8491
3.07040 69.3011
3.15960 99.5143
3.24880 158.005
3.29340 209.477
3.33800 289.836
3.38260 420.678
3.42720 636.576
3.45290 811.076
3.47860 1009.93
3.53000 1255.52
3.58140 1002.04
3.63280 626.724
3.67553 418.479
3.71825 290.200
3.76098 210.345
3.80370 158.704
3.88915 99.5372
3.97460 68.7956
4.06005 51.0074
4.14550 39.8615
4.31640 27.2697
4.48730 20.7260
4.65820 16.9087
4.82910 14.4936
5.00000 12.8709
5.31250 11.0208
5.62500 9.93501
5.93750 9.24280
6.25000 8.77334
6.87500 8.19208
7.50000 7.85513
8.12500 7.63868
8.75000 7.48859
10.0000 7.29298
11.2500 7.16830
12.5000 7.07897
15.0000 6.95282
17.5000 6.86193
20.0000 6.78947
23.8037 6.69994
27.6073 6.62655
31.4110 6.56633
32.3619 6.55496
33.3128 6.54973
33.7882 6.55490
34.0260 6.56333
34.2637 6.58112
34.5014 6.62142
34.6203 6.66146
34.7392 6.73222
34.8580 6.87301
34.9175 7.00143
34.9769 7.21265
35.0363 7.59401
35.0660 7.90999
35.0957 8.38123
35.1255 9.12244
35.1552 10.3631
35.1849 12.5869
35.2146 16.7264
35.2423 22.8664
35.2700 26.9659
35.2977 22.8785
35.3254 16.7410
35.3541 12.7050
35.3827 10.4896
35.4114 9.23171
35.4401 8.47099
35.4687 7.98252
35.4974 7.65283
35.5547 7.25151
35.6120 7.02695
35.6694 6.88915
35.7840 6.73585
35.8986 6.65676
36.0133 6.61039
36.2426 6.56022
36.4719 6.53424
36.7012 6.51835
37.1597 6.49921
38.0769 6.47779
38.9941 6.46291
42.6627 6.41673
50.0000 6.34153
62.5000 6.23969
75.0000 6.15962
100.000 6.03980
125.000 5.95245
150.000 5.88422
200.000 5.77948
260.621 5.67826
275.776 5.65363
290.932 5.62698
298.509 5.61139
302.298 5.60227
306.087 5.59144
309.876 5.57742
311.770 5.56823
313.664 5.55645
314.612 5.54911
315.559 5.54040
316.506 5.52995
317.453 5.51756
317.927 5.51088
318.400 5.50462
318.874 5.50068
319.348 5.50478
319.584 5.51478
319.821 5.53689
320.058 5.58403
320.295 5.68813
320.413 5.78553
320.532 5.94319
320.650 6.21317
320.768 6.71385
320.887 7.75945
320.946 8.74490
321.005 10.4013
321.064 13.4502
321.094 16.0043
321.124 19.8362
321.153 25.8788
321.183 35.9847
321.212 53.9696
321.242 87.0753
321.257 111.214
321.271 139.272
321.300 176.841
321.329 145.962
321.358 95.4403
321.380 68.7055
321.402 51.2547
321.424 39.7850
321.445 32.0338
321.489 22.7119
321.533 17.6050
321.576 14.5206
321.620 12.5263
321.707 10.1790
321.794 8.89500
321.882 8.11333
321.969 7.59863
322.056 7.23982
322.230 6.78119
322.405 6.50699
322.579 6.32774
322.754 6.20304
323.103 6.04302
323.452 5.94618
323.800 5.88196
324.149 5.83655
324.847 5.77689
325.545 5.73960
326.243 5.71407
326.941 5.69546
328.336 5.66992
329.732 5.65298
332.523 5.63114
335.315 5.61688
338.106 5.60622
343.688 5.59005
354.853 5.56586
366.019 5.54535
410.679 5.46779
455.340 5.37941
500.000 5.26240
521.472 5.18500
526.840 5.16120
532.207 5.13357
534.891 5.11698
536.233 5.10737
537.575 5.09635
538.917 5.08316
539.588 5.07552
540.259 5.06734
540.930 5.06030
541.266 5.05953
541.601 5.06541
541.937 5.09198
542.105 5.12690
542.272 5.19970
542.356 5.26542
542.440 5.36904
542.524 5.54140
542.608 5.84966
542.692 6.46474
542.734 7.01819
542.775 7.90692
542.817 9.44528
542.859 12.3592
542.880 14.8547
542.901 18.5985
542.922 24.4321
542.943 33.4723
542.972 51.9121
543.000 65.3002
543.029 54.6209
543.057 36.9432
543.083 26.1343
543.108 19.5962
543.134 15.5858
543.159 13.0137
543.211 10.0747
543.262 8.53832
543.313 7.63762
543.364 7.06377
543.467 6.39791
543.569 6.03756
543.671 5.81849
543.774 5.67412
543.876 5.57325
544.081 5.44333
544.286 5.36466
544.695 5.27564
545.105 5.22711
545.514 5.19658
546.333 5.15973
547.152 5.13748
547.972 5.12185
549.610 5.09965
552.886 5.06875
556.162 5.04339
569.268 4.94499
582.373 4.82589
595.479 4.66597
602.031 4.56167
608.584 4.43307
615.137 4.27037
621.689 4.05931
624.966 3.93042
628.242 3.78480
631.518 3.62839
634.795 3.49141
636.433 3.46168
638.071 3.50624
639.709 3.72295
641.347 4.36559
642.167 5.04331
642.986 6.21083
643.805 8.31294
644.624 12.3762
645.033 15.8650
645.443 21.1661
645.852 29.6327
646.262 44.0649
646.672 71.0024
646.876 93.7839
647.081 128.174
647.286 182.804
647.491 274.785
647.695 439.876
647.900 746.466
648.100 1233.82
648.300 1593.80
648.500 1317.81
648.700 851.680
648.912 528.684
649.124 349.405
649.336 246.606
649.548 183.748
649.760 142.910
649.971 114.986
650.395 80.3745
650.819 60.4968
651.243 47.9872
652.090 33.5951
652.938 25.8417
653.785 21.1270
654.633 18.0117
655.480 15.8249
657.175 12.9925
658.870 11.2578
660.565 10.0923
662.260 9.25348
665.650 8.10334
667.345 7.67151
669.040 7.28347
670.735 6.90475
671.583 6.70653
672.430 6.49641
672.854 6.38802
673.278 6.28287
673.701 6.19613
674.125 6.17469
674.337 6.22872
674.549 6.38151
674.761 6.73698
674.973 7.54748
675.185 9.53531
675.291 11.6065
675.396 15.3471
675.502 22.8260
675.555 29.5363
675.608 40.2035
675.661 58.3741
675.714 91.9010
675.741 119.785
675.767 160.677
675.794 221.916
675.820 313.179
675.860 517.793
675.900 670.916
675.940 558.518
675.980 364.754
676.010 261.110
676.040 192.686
676.070 147.339
676.100 116.473
676.160 78.9711
676.219 58.2361
676.279 45.5890
676.339 37.3276
676.459 27.4825
676.578 22.0095
676.698 18.6253
676.818 16.3634
676.937 14.7664
677.177 12.6864
677.416 11.4114
677.655 10.5583
677.895 9.95049
678.373 9.14466
678.852 8.63433
679.330 8.28013
679.809 8.01785
680.766 7.64970
681.724 7.39729
683.638 7.05807
685.553 6.82670
687.467 6.64948
691.296 6.37896
698.954 5.98351
706.613 5.64731
714.271 5.28406
718.100 5.06312
721.929 4.79167
723.843 4.62883
725.758 4.44373
727.672 4.23765
729.587 4.03090
730.544 3.95200
731.502 3.92992
732.459 4.04915
733.416 4.53281
733.895 5.08604
734.373 6.07173
734.852 7.88738
735.331 11.4491
735.570 14.5266
735.809 19.2102
736.049 26.6825
736.288 39.3681
736.527 62.8104
736.647 82.4126
736.766 111.622
736.886 157.217
737.006 232.021
737.125 361.525
737.245 590.893
737.373 981.484
737.500 1274.97
737.628 1061.89
737.755 691.582
737.897 423.286
738.039 277.754
738.180 195.625
738.322 145.978
738.464 113.913
738.606 92.0920
738.889 65.1013
739.173 49.6159
739.456 39.8534
740.023 28.5740
740.590 22.4441
741.157 18.6739
741.724 16.1457
742.291 14.3359
743.425 11.8849
743.992 10.9839
744.559 10.1969
745.126 9.47982
745.410 9.15051
745.693 8.87685
745.977 8.79502
746.118 8.97159
746.260 9.54640
746.402 11.1487
746.473 12.8730
746.544 15.9830
746.614 22.0583
746.650 27.3128
746.685 35.3449
746.721 48.2423
746.756 69.9704
746.774 86.4658
746.792 108.767
746.809 139.112
746.827 180.125
746.845 235.706
746.864 302.007
746.900 399.202
746.918 387.766
746.937 340.761
746.973 228.984
747.000 168.895
747.027 128.178
747.054 100.694
747.080 81.6951
747.134 58.2181
747.187 44.9489
747.241 36.7022
747.295 31.2274
747.402 24.5613
747.509 20.7589
747.616 18.3470
747.830 15.5058
748.044 13.9034
748.259 12.8771
748.687 11.6275
749.115 10.8789
749.544 10.3674
750.401 9.68825
751.258 9.23773
752.115 8.90520
753.828 8.43037
755.542 8.09678
757.256 7.84434
760.683 7.48103
764.111 7.22799
767.538 7.03938
774.393 6.77334
781.248 6.59157
788.103 6.45732
801.813 6.26804
815.523 6.13696
829.233 6.03780
856.653 5.89107
884.073 5.77994
911.493 5.68418
925.204 5.63693
938.914 5.58464
945.769 5.55236
949.196 5.53247
952.624 5.50769
956.051 5.47353
957.765 5.44980
959.479 5.41786
960.335 5.39701
961.192 5.37124
962.049 5.33847
962.906 5.29560
963.335 5.26919
963.763 5.23908
964.191 5.20623
964.620 5.17633
964.834 5.16851
965.048 5.17484
965.263 5.21427
965.477 5.33573
965.584 5.46482
965.691 5.68716
965.798 6.08555
965.905 6.84738
966.012 8.46127
966.066 9.98026
966.119 12.4963
966.173 17.0116
966.226 25.9646
966.253 33.9433
966.280 46.4272
966.307 66.6856
966.334 99.7699
966.367 163.619
966.400 212.005
966.433 177.761
966.467 117.691
966.499 77.7176
966.532 54.5115
966.565 40.6550
966.598 31.9751
966.630 26.2020
966.663 22.2046
966.729 17.1554
966.794 14.2045
966.860 12.3221
966.991 10.1262
967.122 8.92519
967.253 8.18660
967.384 7.69427
967.515 7.34630
967.777 6.89246
968.039 6.61311
968.301 6.42564
968.562 6.29192
969.086 6.11475
969.610 6.00325
970.134 5.92676
970.658 5.87105
971.706 5.79514
972.754 5.74553
973.802 5.71026
974.850 5.68364
976.946 5.64547
979.042 5.61867
983.233 5.58154
987.425 5.55507
991.617 5.53378
1000.00 5.49875
1022.99 5.42023
1045.99 5.34674
1091.97 5.18732
1137.95 4.98411
1160.95 4.84790
1166.69 4.80564
1172.44 4.75512
1175.32 4.72316
1176.75 4.70372
1178.19 4.68023
1179.63 4.64990
1180.35 4.63062
1181.06 4.60754
1181.78 4.58095
1182.14 4.56866
1182.50 4.56333
1182.86 4.58606
1183.04 4.63022
1183.22 4.73479
1183.31 4.83592
1183.40 5.00143
1183.49 5.28567
1183.58 5.80133
1183.67 6.86212
1183.71 7.83192
1183.76 9.40455
1183.80 12.1426
1183.85 17.3776
1183.87 21.9885
1183.89 28.6472
1183.92 38.8783
1183.94 54.6432
1183.97 87.9572
1184.00 112.971
1184.03 94.7097
1184.06 63.0856
1184.10 39.0281
1184.14 26.5419
1184.17 19.7270
1184.21 15.7797
1184.25 13.1862
1184.28 11.4805
1184.36 9.35154
1184.43 8.13791
1184.50 7.37593
1184.65 6.49903
1184.79 6.02222
1184.94 5.73296
1185.23 5.40446
1185.53 5.22618
1185.82 5.11623
1186.40 4.98790
1186.99 4.91532
1187.57 4.86810
1188.74 4.80873
1189.91 4.77107
1191.08 4.74350
1193.42 4.70250
1198.10 4.64190
1202.78 4.58999
1221.50 4.38127
1230.86 4.25970
1240.22 4.11552
1244.90 4.02824
1249.58 3.91863
1251.92 3.84521
1253.09 3.79872
1254.26 3.74065
1255.43 3.66276
1256.01 3.61176
1256.60 3.54912
1257.18 3.47441
1257.47 3.43751
1257.77 3.41632
1257.91 3.42431
1258.06 3.46265
1258.21 3.56548
1258.35 3.81641
1258.50 4.45349
1258.57 5.12396
1258.64 6.33486
1258.72 8.72660
1258.75 10.8716
1258.79 14.1283
1258.83 19.6530
1258.84 23.6916
1258.86 29.1254
1258.88 37.0647
1258.90 47.6552
1258.92 62.6048
1258.94 83.5907
1258.95 110.018
1258.97 139.344
1259.00 180.921
1259.02 174.233
1259.03 152.439
1259.07 102.187
1259.10 63.8609
1259.14 43.5105
1259.17 31.8919
1259.21 24.7902
1259.25 20.1663
1259.28 16.9930
1259.35 13.0324
1259.43 10.7338
1259.50 9.27050
1259.64 7.56059
1259.79 6.61459
1259.93 6.03286
1260.08 5.64138
1260.22 5.36200
1260.51 4.99150
1260.80 4.75987
1261.09 4.60081
1261.37 4.48542
1261.95 4.32757
1262.53 4.22359
1263.68 4.09118
1264.83 4.00593
1265.99 3.94302
1268.29 3.84876
1272.91 3.70948
1277.52 3.59320
1286.75 3.39391
1295.98 3.28456
1300.59 3.32543
1305.21 3.52083
1309.82 4.04376
1314.43 5.31747
1316.74 6.54600
1319.05 8.54438
1321.36 11.9331
1323.66 18.0387
1325.97 30.0541
1327.12 40.6163
1328.28 57.0256
1329.43 83.9622
1330.58 131.059
1331.74 219.709
1332.31 292.417
1332.89 394.093
1333.95 664.230
1335.00 874.864
1336.06 738.000
1337.11 486.723
1338.12 321.420
1339.13 223.065
1340.15 163.515
1341.16 125.635
1342.17 100.230
1343.18 82.4513
1345.20 59.8001
1347.23 46.4114
1349.25 37.7917
1353.30 27.6229
1357.34 21.9811
1361.39 18.4647
1365.43 16.0851
1369.48 14.3720
1377.57 12.0434
1385.67 10.4188
1389.71 9.66684
1391.74 9.25623
1393.76 8.78115
1395.78 8.17412
1396.79 7.77976
1397.80 7.28490
1398.31 6.98529
1398.82 6.64394
1399.32 6.26352
1399.83 5.88049
1400.08 5.72926
1400.33 5.67160
1400.59 5.84064
1400.84 6.57033
1401.09 8.81481
1401.22 11.3350
1401.35 15.9176
1401.41 19.6771
1401.47 24.9603
1401.54 32.6833
1401.60 44.3337
1401.66 62.5764
1401.72 92.3668
1401.79 143.035
1401.85 230.664
1401.93 401.208
1402.00 546.445
1402.08 476.519
1402.15 324.734
1402.22 220.106
1402.30 156.996
1402.37 118.372
1402.44 93.8070
1402.51 76.9146
1402.59 64.9735
1402.73 49.6552
1402.88 40.3687
1403.02 34.3321
1403.31 27.0302
1403.61 22.8758
1403.90 20.2324
1404.19 18.4166
1404.48 17.1019
1405.06 15.3197
1405.64 14.1756
1406.22 13.3757
1406.80 12.7850
1407.97 11.9623
1409.13 11.4108
1411.46 10.6989
1413.78 10.2412
1416.11 9.90989
1420.76 9.44014
1425.42 9.10574
1430.07 8.84549
1439.37 8.45216
1457.99 7.92906
1476.60 7.58321
1495.21 7.33284
1513.82 7.14148
1551.05 6.86528
1588.27 6.67225
1625.49 6.52577
1662.72 6.40291
1672.02 6.37218
1681.33 6.33816
1685.98 6.31783
1690.64 6.29153
1692.96 6.27306
1695.29 6.24531
1696.45 6.22335
1697.62 6.18839
1698.20 6.16140
1698.78 6.12574
1699.07 6.11067
1699.36 6.13284
1699.51 6.21366
1699.58 6.31298
1699.65 6.50471
1699.72 6.91727
1699.76 7.29431
1699.80 7.90265
1699.83 8.98153
1699.87 10.9334
1699.91 14.8722
1699.92 18.3111
1699.94 23.3776
1699.97 36.1037
1700.00 46.0260
1700.03 39.9612
1700.06 28.7254
1700.08 23.2210
1700.10 19.4775
1700.13 14.7374
1700.17 12.1663
1700.21 10.6445
1700.24 9.67332
1700.28 9.01500
1700.35 8.20915
1700.43 7.73596
1700.50 7.43495
1700.65 7.08352
1700.94 6.76412
1701.24 6.62003
1701.83 6.48737
1702.42 6.42475
1703.60 6.36229
1704.78 6.32836
1707.14 6.28465
1709.50 6.24759
1711.86 6.20341
1713.04 6.17372
1714.22 6.13384
1715.40 6.07504
1715.99 6.03316
1716.58 5.97766
1717.17 5.90220
1717.46 5.85609
1717.76 5.80901
1718.05 5.78487
1718.20 5.81035
1718.35 5.91444
1718.49 6.24177
1718.57 6.61805
1718.64 7.31825
1718.71 8.77191
1718.75 10.0867
1718.79 12.1029
1718.82 15.5499
1718.86 21.7141
1718.90 33.5894
1718.92 43.1887
1718.93 56.6814
1718.95 73.7289
1718.97 92.8283
1719.00 121.965
1719.03 105.363
1719.07 72.4166
1719.10 48.4917
1719.14 35.1157
1719.17 26.9864
1719.20 22.0484
1719.24 18.6788
1719.27 16.4026
1719.34 13.5017
1719.41 11.7606
1719.48 10.6534
1719.62 9.32892
1719.75 8.58456
1719.89 8.12186
1720.16 7.58243
1720.44 7.28162
1720.71 7.09285
1721.26 6.86984
1721.81 6.74294
1722.36 6.66129
1723.46 6.56224
1724.55 6.50384
1725.65 6.46499
1727.85 6.41554
1730.04 6.38447
1732.24 6.36241
1736.63 6.33167
1741.02 6.30985
1745.40 6.29255
1754.18 6.26489
1771.74 6.22195
1789.30 6.18610
1859.53 6.06576
1929.77 5.94927
1964.88 5.87771
1982.44 5.82949
1991.22 5.79633
1995.61 5.77431
2000.00 5.74447
2003.23 5.71200
2004.85 5.68903
2006.47 5.65760
2008.08 5.61049
2008.89 5.57621
2009.70 5.52944
2010.51 5.46186
2010.91 5.41637
2011.32 5.36125
2011.72 5.30191
2011.92 5.28162
2012.13 5.29276
2012.33 5.41049
2012.43 5.58253
2012.53 5.94944
2012.63 6.78863
2012.68 7.61984
2012.73 9.00121
2012.78 11.5675
2012.83 16.6032
2012.86 21.2763
2012.88 28.2968
2012.91 39.5232
2012.93 57.6070
2012.95 75.1015
2012.97 94.7041
2013.00 124.498
2013.03 107.114
2013.07 73.1576
2013.11 46.6196
2013.14 32.4372
2013.18 24.5248
2013.22 19.8554
2013.26 16.7468
2013.30 14.6724
2013.38 12.0428
2013.45 10.5127
2013.53 9.53456
2013.68 8.38380
2013.84 7.74447
2013.99 7.34465
2014.30 6.87935
2014.61 6.62068
2014.92 6.45746
2015.53 6.26423
2016.15 6.15384
2016.76 6.08254
2018.00 5.99513
2019.23 5.94276
2020.46 5.90719
2022.93 5.86021
2025.39 5.82867
2027.86 5.80446
2032.78 5.76608
2042.64 5.70128
2052.50 5.63317
2062.36 5.54872
2072.22 5.43078
2077.15 5.34868
2082.08 5.23792
2084.54 5.16383
2087.01 5.06563
2088.24 4.99941
2089.47 4.91029
2090.09 4.85181
2090.70 4.78807
2091.01 4.77494
2091.17 4.79369
2091.32 4.86338
2091.47 5.07244
2091.55 5.30812
2091.63 5.75030
2091.70 6.65426
2091.74 7.48427
2091.78 8.77053
2091.82 10.9984
2091.86 14.9324
2091.90 22.9183
2091.92 29.6039
2091.94 39.7589
2091.95 51.0544
2091.97 64.3124
2092.00 83.5569
2092.03 71.5704
2092.06 48.8506
2092.08 38.3766
2092.10 31.0798
2092.14 21.9270
2092.18 16.7434
2092.22 13.7288
2092.26 11.7433
2092.30 10.4293
2092.37 8.79363
2092.45 7.83473
2092.52 7.23222
2092.68 6.51970
2092.83 6.12176
2092.98 5.87366
2093.29 5.58060
2093.90 5.30033
2094.52 5.15559
2095.74 4.98208
2096.97 4.85524
2099.42 4.61876
2101.87 4.34554
2103.10 4.18302
2104.32 4.00030
2105.55 3.80323
2106.78 3.62518
2107.39 3.57808
2108.00 3.61154
2108.61 3.82866
2109.23 4.48590
2109.84 6.31662
2110.15 8.30980
2110.45 11.9293
2110.76 19.0727
2110.91 25.2715
2111.07 34.7695
2111.22 49.9856
2111.37 75.6663
2111.53 121.409
2111.68 205.212
2111.84 351.549
2112.00 471.413
2112.16 405.101
2112.32 272.170
2112.44 200.216
2112.56 151.572
2112.68 118.276
2112.79 95.3548
2113.03 66.7428
2113.26 50.4558
2113.50 40.3126
2113.73 33.5456
2114.20 25.2917
2114.67 20.5752
2115.14 17.5857
2115.61 15.5479
2116.08 14.0822
2117.02 12.1336
2117.96 10.9097
2118.90 10.0761
2119.84 9.47512
2121.72 8.66865
2123.60 8.15526
2125.48 7.80075
2127.36 7.54167
2131.12 7.18822
2134.88 6.95840
2138.64 6.79665
2142.40 6.67639
2149.92 6.50866
2157.44 6.39630
2164.96 6.31491
2172.47 6.25257
2187.51 6.16160
2202.55 6.09631
2232.62 6.00244
2262.70 5.92955
2292.77 5.85982
2307.81 5.82012
2315.33 5.79683
2322.85 5.76907
2330.37 5.73278
2334.13 5.70852
2337.89 5.67648
2341.65 5.62953
2343.53 5.59538
2345.41 5.54776
2347.29 5.47495
2348.23 5.42125
2349.16 5.34709
2350.10 5.23829
2350.57 5.16358
2351.04 5.07075
2351.51 4.96405
2351.75 4.91899
2351.98 4.91322
2352.22 5.05147
2352.34 5.27990
2352.45 5.78240
2352.57 6.97321
2352.63 8.15809
2352.69 10.1453
2352.75 13.8455
2352.81 21.1545
2352.84 27.9106
2352.87 38.1166
2352.89 54.4531
2352.92 80.7992
2352.96 136.219
2353.00 179.881
2353.02 174.860
2353.04 154.303
2353.08 105.244
2353.12 68.4733
2353.16 47.8224
2353.20 35.8676
2353.25 28.4818
2353.29 23.6301
2353.33 20.2746
2353.41 16.0837
2353.50 13.5864
2353.58 11.9819
2353.75 10.0937
2353.92 9.03256
2354.08 8.37093
2354.25 7.92127
2354.42 7.59786
2354.75 7.16571
2355.09 6.89295
2355.42 6.70601
2355.76 6.57057
2356.43 6.38671
2357.09 6.26830
2358.43 6.12410
2359.77 6.03878
2361.11 5.98170
2363.79 5.90835
2366.47 5.86118
2369.14 5.82654
2374.50 5.77467
2379.85 5.73260
2385.21 5.69315
2395.92 5.60756
2401.27 5.55500
2406.63 5.49011
2411.98 5.40518
2417.34 5.28592
2420.02 5.20509
2422.69 5.10197
2425.37 4.96534
2428.05 4.77583
2429.39 4.65096
2430.73 4.49745
2432.06 4.30648
2433.40 4.07020
2434.07 3.93627
2434.74 3.80120
2435.41 3.69073
2436.08 3.68427
2436.41 3.78715
2436.75 4.05081
2437.08 4.63710
2437.42 5.91401
2437.75 8.86674
2437.92 11.7379
2438.09 16.5614
2438.26 25.2607
2438.34 32.2579
2438.42 42.1222
2438.51 56.7712
2438.59 78.6175
2438.67 112.797
2438.76 165.127
2438.88 283.585
2439.00 381.674
2439.12 329.692
2439.24 222.806
2439.32 170.901
2439.40 133.995
2439.55 88.3217
2439.71 63.4997
2439.86 48.8516
