Sr-87(n,g) ENDF/B-VII.1
Energy(eV) XS(b)
1.00000E-05 795.859
1.25000E-05 711.839
1.50000E-05 649.818
2.00000E-05 562.760
2.75000E-05 479.925
3.50000E-05 425.409
4.25000E-05 386.054
5.00000E-05 355.925
6.25000E-05 318.351
7.50000E-05 290.615
0.000100000 251.683
0.000125000 225.114
0.000150000 205.503
0.000200000 177.974
0.000275000 151.782
0.000350000 134.545
0.000425000 122.101
0.000500000 112.576
0.000625000 100.696
0.000750000 91.9277
0.00100000 79.6204
0.00125000 71.2224
0.00150000 65.0240
0.00200000 56.3248
0.00275000 48.0497
0.00350000 42.6055
0.00425000 38.6766
0.00500000 35.6698
0.00625000 31.9215
0.00750000 29.1562
0.0100000 25.2777
0.0125000 22.6339
0.0150000 20.6846
0.0200000 17.9529
0.0253000 15.9995
0.0314750 14.3837
0.0376500 13.1875
0.0500000 11.5067
0.0625000 10.3497
0.0750000 9.50127
0.100000 8.32230
0.125000 7.52962
0.150000 6.95379
0.200000 6.16591
0.275000 5.45306
0.350000 5.01879
0.500000 4.54457
0.750000 4.28749
1.00000 4.36929
1.50000 5.29643
2.00000 7.78205
2.35680 11.9254
2.53520 15.8237
2.71360 22.4512
2.89200 35.0817
2.98120 46.1911
3.07040 63.8621
3.15960 94.3619
3.24880 153.223
3.29340 204.902
3.33800 285.447
3.38260 416.343
3.42720 631.853
3.45290 805.664
3.47860 1003.25
3.53000 1244.75
3.58140 988.681
3.63280 613.657
3.67553 406.278
3.71825 278.809
3.76098 199.606
3.80370 148.476
3.88915 90.0295
3.97460 59.7601
4.06005 42.3006
4.14550 31.3953
4.31640 19.1307
4.48730 12.7989
4.65820 9.13025
4.82910 6.82549
5.00000 5.28825
5.31250 3.55386
5.62500 2.55143
5.93750 1.92283
6.25000 1.50408
6.87500 1.00003
7.50000 0.720665
8.12500 0.550098
8.75000 0.438298
10.0000 0.304968
11.2500 0.230768
12.5000 0.184605
15.0000 0.131189
17.5000 0.101457
20.0000 0.0825005
23.8037 0.0639514
27.6073 0.0522389
31.4110 0.0465735
32.3619 0.0479079
33.3128 0.0550349
33.7882 0.0662629
34.0260 0.0776833
34.2637 0.0984390
34.5014 0.141678
34.6203 0.183172
34.7392 0.255358
34.8580 0.397530
34.9175 0.526603
34.9769 0.738424
35.0363 1.12028
35.0660 1.43644
35.0957 1.90776
35.1255 2.64889
35.1552 3.88914
35.1849 6.11202
35.2146 10.2494
35.2423 16.3860
35.2700 20.4834
35.2977 16.3987
35.3254 10.2652
35.3541 6.23207
35.3827 4.01833
35.4114 2.76154
35.4401 2.00163
35.4687 1.51380
35.4974 1.18466
35.5547 0.784271
35.6120 0.560543
35.6694 0.423513
35.7840 0.271686
35.8986 0.194011
36.0133 0.149044
36.2426 0.101632
36.4719 0.0783751
36.7012 0.0651912
37.1597 0.0514005
38.0769 0.0404851
38.9941 0.0358644
42.6627 0.0284974
50.0000 0.0217854
62.5000 0.0152691
75.0000 0.0113736
100.000 0.00708068
125.000 0.00490097
150.000 0.00366104
200.000 0.00242301
260.621 0.00192600
275.776 0.00196880
290.932 0.00225223
298.509 0.00270303
302.298 0.00316633
306.087 0.00402387
309.876 0.00587588
311.770 0.00773234
313.664 0.0111346
314.612 0.0140146
315.559 0.0184324
316.506 0.0257159
317.453 0.0390118
317.927 0.0502244
318.400 0.0673612
318.874 0.0954714
319.348 0.146402
319.584 0.189026
319.821 0.253677
320.058 0.358615
320.295 0.545829
320.413 0.700075
320.532 0.930436
320.650 1.29649
320.768 1.92965
320.887 3.16791
320.946 4.28507
321.005 6.10701
321.064 9.36240
321.094 12.0333
321.124 15.9818
321.153 22.1163
321.183 32.2192
321.212 49.9066
321.242 81.8564
321.257 104.761
321.271 130.929
321.300 163.624
321.329 130.916
321.358 81.8410
321.380 56.4923
321.402 40.1786
321.424 29.5840
321.445 22.5018
321.489 14.1051
321.533 9.59192
321.576 6.91492
321.620 5.21398
321.707 3.25901
321.794 2.22396
321.882 1.61326
321.969 1.22310
322.056 0.958953
322.230 0.634595
322.405 0.450897
322.579 0.336820
322.754 0.261253
323.103 0.170456
323.452 0.120091
323.800 0.0892890
324.149 0.0690911
324.847 0.0450910
325.545 0.0319249
326.243 0.0239328
326.941 0.0187210
328.336 0.0125634
329.732 0.00920468
332.523 0.00585419
335.315 0.00430027
338.106 0.00345611
343.688 0.00261897
354.853 0.00203129
366.019 0.00184156
410.679 0.00181122
455.340 0.00216448
500.000 0.00303670
521.472 0.00405901
526.840 0.00461625
532.207 0.00579483
534.891 0.00720802
536.233 0.00855110
537.575 0.0109466
538.917 0.0159857
539.588 0.0209635
540.259 0.0299903
540.930 0.0491063
541.266 0.0679454
541.601 0.101864
541.937 0.172613
542.105 0.241119
542.272 0.361817
542.356 0.460131
542.440 0.605259
542.524 0.832245
542.608 1.21536
542.692 1.93885
542.734 2.56611
542.775 3.54772
542.817 5.20386
542.859 8.26088
542.880 10.8307
542.901 14.6331
542.922 20.4710
542.943 29.3663
542.972 47.0077
543.000 58.7097
543.029 46.9392
543.057 29.3631
543.083 18.9332
543.108 12.7447
543.134 9.00965
543.159 6.64914
543.211 4.00325
543.262 2.65539
543.313 1.88435
543.364 1.40458
543.467 0.865466
543.569 0.586277
543.671 0.423562
543.774 0.320599
543.876 0.251438
544.081 0.167066
544.286 0.119597
544.695 0.0709350
545.105 0.0477762
545.514 0.0349915
546.333 0.0221136
547.152 0.0161049
547.972 0.0128439
549.610 0.00964825
552.886 0.00754259
556.162 0.00702154
569.268 0.00789969
582.373 0.0104898
595.479 0.0153489
602.031 0.0194269
608.584 0.0256250
615.137 0.0357439
621.689 0.0540366
624.966 0.0693630
628.242 0.0926857
631.518 0.130792
634.795 0.199587
636.433 0.257035
638.071 0.344050
639.709 0.485121
641.347 0.736519
642.167 0.943535
642.986 1.25260
643.805 1.74362
644.624 2.59265
645.033 3.27088
645.443 4.25330
645.852 5.75203
646.262 8.19634
646.672 12.5671
646.876 16.1552
647.081 21.4602
647.286 29.7123
647.491 43.3112
647.695 67.1696
647.900 110.340
648.100 176.554
648.300 220.652
648.500 176.425
648.700 110.214
648.912 65.9747
649.124 42.0349
649.336 28.5953
649.548 20.5338
649.760 15.3899
649.971 11.9328
650.395 7.74739
650.819 5.41928
651.243 3.99831
652.090 2.42971
652.938 1.63104
653.785 1.17075
654.633 0.881893
655.480 0.689027
657.175 0.456072
658.870 0.326829
660.565 0.248691
662.260 0.199060
665.650 0.148309
667.345 0.140981
669.040 0.148476
670.735 0.184800
671.583 0.227624
672.430 0.309985
672.854 0.380821
673.278 0.489768
673.701 0.668820
674.125 0.992013
674.337 1.26089
674.549 1.66580
674.761 2.31611
674.973 3.45705
675.185 5.74089
675.291 7.85382
675.396 11.3892
675.502 17.9719
675.555 23.6039
675.608 32.2689
675.661 46.5603
675.714 72.0888
675.741 92.8290
675.767 122.724
675.794 166.674
675.820 230.816
675.860 369.436
675.900 461.521
675.940 369.033
675.980 230.780
676.010 159.618
676.040 113.669
676.070 83.7824
676.100 63.7794
676.160 40.0060
676.219 27.2394
676.279 19.6633
676.339 14.8427
676.459 9.29860
676.578 6.36207
676.698 4.62801
676.818 3.51898
676.937 2.76862
677.177 1.84657
677.416 1.32397
677.655 0.999337
677.895 0.783946
678.373 0.524708
678.852 0.380463
679.330 0.291856
679.809 0.233438
680.766 0.163354
681.724 0.124246
683.638 0.0838471
685.553 0.0640345
687.467 0.0526422
691.296 0.0405769
698.954 0.0324205
706.613 0.0338469
714.271 0.0456659
718.100 0.0594784
721.929 0.0857017
723.843 0.108095
725.758 0.142435
727.672 0.198788
729.587 0.300694
730.544 0.385768
731.502 0.514491
732.459 0.722797
733.416 1.09292
733.895 1.39684
734.373 1.84917
734.852 2.56494
735.331 3.79579
735.570 4.77375
735.809 6.18253
736.049 8.31567
736.288 11.7605
736.527 17.8263
736.647 22.7320
736.766 29.8736
736.886 40.7630
737.006 58.2044
737.125 87.6416
737.245 138.293
737.373 221.044
737.500 276.091
737.628 220.959
737.755 138.210
737.897 80.8430
738.039 50.6842
738.180 34.1010
738.322 24.3092
738.464 18.1231
738.606 14.0010
738.889 9.04679
739.173 6.31347
739.456 4.65402
740.023 2.83327
740.590 1.91365
741.157 1.38939
741.724 1.06661
742.291 0.859085
743.425 0.645764
743.992 0.616524
744.559 0.652356
745.126 0.814184
745.410 1.00091
745.693 1.35269
745.977 2.09598
746.118 2.81033
746.260 4.04749
746.402 6.46466
746.473 8.63747
746.544 12.1576
746.614 18.4043
746.650 23.4781
746.685 30.9120
746.721 42.3620
746.756 60.8657
746.774 74.4930
746.792 92.5138
746.809 116.464
746.827 148.001
746.845 189.414
746.864 236.722
746.900 295.614
746.918 278.204
746.937 236.444
746.973 147.977
747.000 103.280
747.027 74.0291
747.054 54.8514
747.080 41.9354
747.134 26.5042
747.187 18.1591
747.241 13.1819
747.295 10.0045
747.402 6.33458
747.509 4.38539
747.616 3.22992
747.830 1.98660
748.044 1.36610
748.259 1.01175
748.687 0.640574
749.115 0.457833
749.544 0.352887
750.401 0.240043
751.258 0.181357
752.115 0.145475
753.828 0.103551
755.542 0.0795645
757.256 0.0639371
760.683 0.0448089
764.111 0.0336560
767.538 0.0264589
774.393 0.0179159
781.248 0.0131647
788.103 0.0102217
801.813 0.00687902
815.523 0.00510250
829.233 0.00403961
856.653 0.00289274
884.073 0.00236139
911.493 0.00219376
925.204 0.00229822
938.914 0.00279832
945.769 0.00356264
949.196 0.00434249
952.624 0.00578259
956.051 0.00888952
957.765 0.0120028
959.479 0.0177059
960.335 0.0225314
961.192 0.0299290
962.049 0.0421139
962.906 0.0643184
963.335 0.0830155
963.763 0.111533
964.191 0.158201
964.620 0.242408
964.834 0.312635
965.048 0.418681
965.263 0.589852
965.477 0.892727
965.584 1.14020
965.691 1.50677
965.798 2.08279
965.905 3.06311
966.012 4.93236
966.066 6.57559
966.119 9.17431
966.173 13.6328
966.226 22.0886
966.253 29.3915
966.280 40.5581
966.307 58.2407
966.334 86.3300
966.367 138.246
966.400 172.732
966.433 138.074
966.467 86.3231
966.499 53.4453
966.532 34.9383
966.565 24.1672
966.598 17.5740
966.630 13.2823
966.663 10.3709
966.729 6.79429
966.794 4.78072
966.860 3.54118
966.991 2.16227
967.122 1.45483
967.253 1.04498
967.384 0.786690
967.515 0.613575
967.777 0.403256
968.039 0.285263
968.301 0.212532
968.562 0.164581
969.086 0.107246
969.610 0.0756051
970.134 0.0563135
970.658 0.0436957
971.706 0.0287365
972.754 0.0205480
973.802 0.0155847
974.850 0.0123514
976.946 0.00853529
979.042 0.00645585
983.233 0.00438451
987.425 0.00342696
991.617 0.00291005
1000.00 0.00240707
1022.99 0.00205552
1045.99 0.00207522
1091.97 0.00249320
1137.95 0.00352168
1160.95 0.00482616
1166.69 0.00562107
1172.44 0.00745136
1175.32 0.00976365
1176.75 0.0120052
1178.19 0.0160452
1179.63 0.0246051
1180.35 0.0330971
1181.06 0.0485017
1181.78 0.0811997
1182.14 0.113392
1182.50 0.171327
1182.86 0.292553
1183.04 0.410024
1183.22 0.615791
1183.31 0.784066
1183.40 1.03254
1183.49 1.42131
1183.58 2.06916
1183.67 3.30074
1183.71 4.36903
1183.76 6.03999
1183.80 8.84778
1183.85 14.0290
1183.87 18.4769
1183.89 24.7813
1183.92 34.2797
1183.94 48.5933
1183.97 77.7270
1184.00 97.1409
1184.03 77.7246
1184.06 48.5905
1184.10 27.3839
1184.14 16.7290
1184.17 11.0679
1184.21 7.86689
1184.25 5.81050
1184.28 4.48690
1184.36 2.88217
1184.43 2.00291
1184.50 1.47130
1184.65 0.889638
1184.79 0.594289
1184.94 0.426265
1185.23 0.250823
1185.53 0.165709
1185.82 0.118385
1186.40 0.0701158
1186.99 0.0473087
1187.57 0.0347718
1188.74 0.0222014
1189.91 0.0163671
1191.08 0.0132175
1193.42 0.0101616
1198.10 0.00822573
1202.78 0.00784322
1221.50 0.00945505
1230.86 0.0112467
1240.22 0.0142127
1244.90 0.0168534
1249.58 0.0223118
1251.92 0.0287162
1253.09 0.0347377
1254.26 0.0454051
1255.43 0.0676985
1256.01 0.0896190
1256.60 0.129218
1257.18 0.212594
1257.47 0.294466
1257.77 0.440422
1257.91 0.561937
1258.06 0.742881
1258.21 1.03150
1258.35 1.53347
1258.50 2.52380
1258.57 3.42573
1258.64 4.91168
1258.72 7.60745
1258.75 9.89126
1258.79 13.2272
1258.83 18.6732
1258.84 22.5464
1258.86 27.6594
1258.88 34.9814
1258.90 44.5475
1258.92 57.7611
1258.94 75.8646
1258.95 98.0209
1258.97 121.707
1259.00 150.875
1259.02 141.315
1259.03 120.228
1259.07 75.8601
1259.10 43.9278
1259.14 27.6563
1259.17 18.6707
1259.21 13.3401
1259.25 9.96464
1259.28 7.70848
1259.35 4.99113
1259.43 3.48775
1259.50 2.57296
1259.64 1.56616
1259.79 1.05216
1259.93 0.758787
1260.08 0.574641
1260.22 0.451584
1260.51 0.302184
1260.80 0.219027
1261.09 0.167767
1261.37 0.134191
1261.95 0.0941766
1262.53 0.0722731
1263.68 0.0505650
1264.83 0.0407663
1265.99 0.0357507
1268.29 0.0315513
1272.91 0.0310184
1277.52 0.0340495
1286.75 0.0461012
1295.98 0.0690872
1300.59 0.0882363
1305.21 0.116938
1309.82 0.162685
1314.43 0.242101
1316.74 0.305756
1319.05 0.398308
1321.36 0.540141
1323.66 0.773102
1325.97 1.19390
1327.12 1.54326
1328.28 2.06517
1329.43 2.88943
1330.58 4.27569
1331.74 6.78180
1332.31 8.77466
1332.89 11.4932
1333.95 18.3738
1335.00 22.9400
1336.06 18.3368
1337.11 11.4575
1338.12 7.18438
1339.13 4.73501
1340.15 3.29716
1341.16 2.40749
1342.17 1.82600
1343.18 1.42888
1345.20 0.939397
1347.23 0.662642
1349.25 0.491834
1353.30 0.301487
1357.34 0.203823
1361.39 0.147459
1365.43 0.112258
1369.48 0.0891203
1377.57 0.0632096
1385.67 0.0561364
1389.71 0.0634210
1391.74 0.0739046
1393.76 0.0951998
1395.78 0.143100
1396.79 0.191507
1397.80 0.279609
1398.31 0.353473
1398.82 0.465395
1399.32 0.646576
1399.83 0.967311
1400.08 1.23040
1400.33 1.62096
1400.59 2.23642
1400.84 3.28801
1401.09 5.30525
1401.22 7.09650
1401.35 9.93086
1401.41 12.0561
1401.47 14.8719
1401.54 18.7637
1401.60 24.3250
1401.66 32.5835
1401.72 45.3749
1401.79 65.9772
1401.85 99.5360
1401.93 159.361
1402.00 199.286
1402.08 159.343
1402.15 99.5185
1402.22 61.9790
1402.30 40.6499
1402.37 28.2140
1402.44 20.6341
1402.51 15.6206
1402.59 12.2043
1402.73 8.03031
1402.88 5.65709
1403.02 4.20369
1403.31 2.57722
1403.61 1.74144
1403.90 1.25669
1404.19 0.950944
1404.48 0.746449
1405.06 0.496775
1405.64 0.356708
1406.22 0.270054
1406.80 0.212882
1407.97 0.144182
1409.13 0.106045
1411.46 0.0670731
1413.78 0.0483076
1416.11 0.0376708
1420.76 0.0263247
1425.42 0.0204236
1430.07 0.0167808
1439.37 0.0124275
1457.99 0.00809366
1476.60 0.00585574
1495.21 0.00448484
1513.82 0.00356890
1551.05 0.00244964
1588.27 0.00182224
1625.49 0.00146000
1662.72 0.00135435
1672.02 0.00143530
1681.33 0.00170477
1685.98 0.00206433
1690.64 0.00300706
1692.96 0.00424227
1695.29 0.00760157
1696.45 0.0121537
1697.62 0.0247810
1698.20 0.0419665
1698.78 0.0890008
1699.07 0.151655
1699.36 0.317262
1699.51 0.528124
1699.58 0.722582
1699.65 1.04150
1699.72 1.63707
1699.76 2.13458
1699.80 2.89099
1699.83 4.15653
1699.87 6.31938
1699.91 10.4410
1699.92 13.8887
1699.94 18.7970
1699.97 30.3741
1700.00 37.7886
1700.03 29.9611
1700.06 18.7963
1700.08 13.6622
1700.10 10.2830
1700.13 6.16109
1700.17 4.02631
1700.21 2.81375
1700.24 2.06879
1700.28 1.58163
1700.35 1.01300
1700.43 0.699567
1700.50 0.511687
1700.65 0.308692
1700.94 0.147727
1701.24 0.0868757
1701.83 0.0412469
1702.42 0.0247160
1703.60 0.0127803
1704.78 0.00874562
1707.14 0.00652269
1709.50 0.00710805
1711.86 0.0102447
1713.04 0.0137407
1714.22 0.0202981
1715.40 0.0344851
1715.99 0.0486358
1716.58 0.0743050
1717.17 0.128632
1717.46 0.181950
1717.76 0.277390
1718.05 0.474467
1718.20 0.663890
1718.35 0.991267
1718.49 1.64235
1718.57 2.23715
1718.64 3.20287
1718.71 4.97800
1718.75 6.46116
1718.79 8.61908
1718.82 12.1234
1718.86 18.0747
1718.90 28.9474
1718.92 37.3934
1718.93 48.8995
1718.95 62.9180
1718.97 77.9067
1719.00 97.1080
1719.03 77.9048
1719.07 48.8973
1719.10 29.3475
1719.14 18.9479
1719.17 12.8773
1719.20 9.32048
1719.24 6.97239
1719.27 5.43518
1719.34 3.55540
1719.41 2.48779
1719.48 1.84306
1719.62 1.12223
1719.75 0.751841
1719.89 0.539688
1720.16 0.316702
1720.44 0.207838
1720.71 0.147084
1721.26 0.0849473
1721.81 0.0553944
1722.36 0.0390926
1723.46 0.0226669
1724.55 0.0149524
1725.65 0.0107260
1727.85 0.00647867
1730.04 0.00448823
1732.24 0.00339430
1736.63 0.00228827
1741.02 0.00176225
1745.40 0.00146776
1754.18 0.00116007
1771.74 0.000912859
1789.30 0.000807046
1859.53 0.000677673
1929.77 0.000764038
1964.88 0.00100713
1982.44 0.00139791
1991.22 0.00193103
1995.61 0.00250443
2000.00 0.00370499
2003.23 0.00575791
2004.85 0.00779352
2006.47 0.0115007
2008.08 0.0194210
2008.89 0.0273089
2009.70 0.0416528
2010.51 0.0721620
2010.91 0.102257
2011.32 0.156512
2011.72 0.269858
2011.92 0.379738
2012.13 0.573757
2012.33 0.965799
2012.43 1.33222
2012.53 1.95331
2012.63 3.13011
2012.68 4.16901
2012.73 5.77116
2012.78 8.54332
2012.83 13.6238
2012.86 18.1181
2012.88 24.6398
2012.91 34.7011
2012.93 50.2704
2012.95 64.7383
2012.97 80.2353
2013.00 100.130
2013.03 80.2337
2013.07 50.2685
2013.11 28.5233
2013.14 17.5003
2013.18 11.6089
2013.22 8.26127
2013.26 6.10889
2013.30 4.71924
2013.38 3.03325
2013.45 2.10807
2013.53 1.54815
2013.68 0.934978
2013.84 0.624933
2013.99 0.446953
2014.30 0.261146
2014.61 0.171237
2014.92 0.121032
2015.53 0.0698905
2016.15 0.0456679
2016.76 0.0323610
2018.00 0.0189805
2019.23 0.0127294
2020.46 0.00932722
2022.93 0.00595570
2025.39 0.00442360
2027.86 0.00362450
2032.78 0.00292065
2042.64 0.00274199
2052.50 0.00321670
2062.36 0.00429474
2072.22 0.00654324
2077.15 0.00869419
2082.08 0.0127364
2084.54 0.0167002
2087.01 0.0252428
2088.24 0.0353046
2089.47 0.0611227
2090.09 0.0949929
2090.70 0.186319
2091.01 0.306791
2091.17 0.422107
2091.32 0.623105
2091.47 1.02136
2091.55 1.38591
2091.63 1.99001
2091.70 3.09584
2091.74 4.04090
2091.78 5.43687
2091.82 7.74405
2091.86 11.6341
2091.90 19.1635
2091.92 25.2448
2091.94 34.2166
2091.95 43.8799
2091.97 54.7764
2092.00 68.3586
2092.03 54.7755
2092.06 34.2157
2092.08 25.2440
2092.10 19.1630
2092.14 11.7708
2092.18 7.74412
2092.22 5.48303
2092.26 4.04148
2092.30 3.11658
2092.37 2.01188
2092.45 1.39947
2092.52 1.03463
2092.68 0.632844
2092.83 0.429309
2092.98 0.313725
2093.29 0.193499
2093.90 0.103877
2094.52 0.0724401
2095.74 0.0523496
2096.97 0.0490284
2099.42 0.0586011
2101.87 0.0850929
2103.10 0.108507
2104.32 0.144465
2105.55 0.203129
2106.78 0.307894
2107.39 0.394123
2108.00 0.522691
2108.61 0.726460
2109.23 1.07749
2109.84 1.75950
2110.15 2.37167
2110.45 3.35911
2110.76 5.10921
2110.91 6.52397
2111.07 8.59011
2111.22 11.7477
2111.37 16.8314
2111.53 25.4554
2111.68 40.4218
2111.84 64.6699
2112.00 80.8290
2112.16 64.6584
2112.32 40.4105
2112.44 28.1879
2112.56 20.2443
2112.68 14.9824
2112.79 11.4643
2113.03 7.23389
2113.26 4.94006
2113.50 3.57410
2113.73 2.70031
2114.20 1.69233
2114.67 1.15726
2115.14 0.840409
2115.61 0.637669
2116.08 0.500254
2117.02 0.331389
2117.96 0.235567
2118.90 0.176037
2119.84 0.136583
2121.72 0.0890906
2123.60 0.0627191
2125.48 0.0465752
2127.36 0.0359844
2131.12 0.0233787
2134.88 0.0164527
2138.64 0.0122411
2142.40 0.00949154
2149.92 0.00623731
2157.44 0.00445884
2164.96 0.00338273
2172.47 0.00268345
2187.51 0.00186299
2202.55 0.00142358
2232.62 0.00101455
2262.70 0.000887273
2292.77 0.000963257
2307.81 0.00114541
2315.33 0.00132965
2322.85 0.00165920
2330.37 0.00234458
2334.13 0.00301578
2337.89 0.00422944
2341.65 0.00681017
2343.53 0.00937805
2345.41 0.0140627
2347.29 0.0240816
2348.23 0.0340566
2349.16 0.0521969
2350.10 0.0907590
2350.57 0.128837
2351.04 0.197498
2351.51 0.340987
2351.75 0.480135
2351.98 0.725922
2352.22 1.22284
2352.34 1.69006
2352.45 2.47570
2352.57 3.97931
2352.63 5.29553
2352.69 7.32911
2352.75 10.8333
2352.81 17.2610
2352.84 22.9034
2352.87 31.1155
2352.89 43.7637
2352.92 63.3036
2352.96 101.666
2353.00 126.310
2353.02 118.361
2353.04 100.617
2353.08 63.3009
2353.12 37.3987
2353.16 23.6021
2353.20 15.9521
2353.25 11.4032
2353.29 8.51873
2353.33 6.58896
2353.41 4.28285
2353.50 2.98672
2353.58 2.19846
2353.75 1.33497
2353.92 0.893241
2354.08 0.640371
