Y-89(n,g) ENDF/B-VII.1
Energy(eV) XS(b)
1.00000E-05 64.3078
1.25000E-05 57.5186
1.50000E-05 52.5071
2.00000E-05 45.4725
2.75000E-05 38.7790
3.50000E-05 34.3739
4.25000E-05 31.1938
5.00000E-05 28.7593
6.25000E-05 25.7231
7.50000E-05 23.4819
0.000100000 20.3359
0.000125000 18.1890
0.000150000 16.6042
0.000200000 14.3796
0.000275000 12.2630
0.000350000 10.8700
0.000425000 9.86433
0.000500000 9.09446
0.000625000 8.13432
0.000750000 7.42558
0.00100000 6.43073
0.00125000 5.75180
0.00150000 5.25064
0.00200000 4.54717
0.00275000 3.87782
0.00350000 3.43730
0.00425000 3.11928
0.00500000 2.87582
0.00625000 2.57218
0.00750000 2.34805
0.0100000 2.03343
0.0125000 1.81872
0.0150000 1.66022
0.0200000 1.43774
0.0253000 1.27825
0.0314750 1.14597
0.0376500 1.04774
0.0500000 0.909089
0.0625000 0.813033
0.0750000 0.742121
0.100000 0.642568
0.125000 0.574617
0.150000 0.524447
0.200000 0.454005
0.275000 0.386947
0.350000 0.342788
0.500000 0.286457
0.750000 0.233429
1.00000 0.201757
1.50000 0.164086
2.00000 0.141544
2.75000 0.120001
3.50000 0.105747
5.00000 0.0874460
7.50000 0.0700328
10.0000 0.0595005
15.0000 0.0467834
20.0000 0.0390435
27.5000 0.0315386
35.0000 0.0265189
50.0000 0.0200468
75.0000 0.0139740
100.000 0.0104559
150.000 0.00656508
200.000 0.00451458
275.000 0.00285346
350.000 0.00195725
425.000 0.00142166
500.000 0.00107835
625.000 0.000732494
750.000 0.000535072
875.000 0.000414827
1000.00 0.000338973
1250.00 0.000262571
1500.00 0.000249766
1750.00 0.000301083
1875.00 0.000367710
2000.00 0.000490344
2074.69 0.000613050
2149.38 0.000804394
2224.07 0.00112276
2298.75 0.00170551
2336.10 0.00219599
2373.44 0.00294245
2410.79 0.00415791
2448.13 0.00633346
2466.80 0.00813093
2485.48 0.0108222
2504.15 0.0151151
2522.82 0.0225878
2541.49 0.0373915
2550.83 0.0509862
2560.16 0.0737052
2569.50 0.116254
2574.17 0.153359
2578.84 0.212599
2583.50 0.317934
2585.84 0.406527
2588.17 0.545284
2590.51 0.791066
2591.67 1.00068
2592.84 1.33670
2593.42 1.59233
2594.01 1.95117
2594.59 2.48638
2595.17 3.34457
2595.47 3.98988
2595.76 4.87753
2596.05 6.14820
2596.34 8.05029
2596.63 11.0958
2596.93 16.3336
2597.07 20.4267
2597.22 26.1330
2597.36 34.1965
2597.51 45.4322
2597.75 72.0846
2598.00 89.8574
2598.25 72.1712
2598.49 45.6224
2598.79 26.0889
2599.09 16.4597
2599.39 11.4240
2599.69 8.57457
2600.28 5.77266
2600.88 4.62371
2602.07 4.15241
2603.26 4.92594
2604.45 7.03272
2605.05 8.94813
2605.65 11.9298
2606.24 16.8150
2606.84 25.4085
2607.43 41.8832
2607.73 55.7200
2608.03 75.4724
2608.52 120.952
2609.00 151.376
2609.49 120.865
2609.97 75.3761
2610.35 51.4463
2610.72 36.2597
2611.10 26.5080
2611.48 20.0759
2612.23 12.5179
2612.98 8.49859
2613.73 6.12831
2614.49 4.62322
2615.99 2.89835
2617.50 1.98589
2619.00 1.44653
2620.51 1.10103
2622.01 0.866682
2625.03 0.577761
2628.04 0.413036
2631.05 0.310193
2634.06 0.241645
2640.08 0.158711
2646.10 0.112294
2652.12 0.0836873
2658.15 0.0648090
2670.19 0.0422010
2682.23 0.0296851
2694.28 0.0220333
2706.32 0.0170143
2730.41 0.0110435
2754.50 0.00776074
2778.58 0.00576344
2802.67 0.00445815
2850.85 0.00291175
2899.02 0.00206579
2947.20 0.00155433
2995.37 0.00122363
3091.72 0.000848085
3188.07 0.000698724
3236.25 0.000723047
3284.42 0.000946309
3308.51 0.00131668
3332.60 0.00242204
3344.64 0.00398537
3350.66 0.00555748
3356.68 0.00844333
3362.71 0.0146387
3365.72 0.0208212
3368.73 0.0320979
3370.23 0.0416004
3371.74 0.0560938
3373.24 0.0798349
3374.75 0.122680
3375.50 0.158435
3376.26 0.212484
3377.01 0.299801
3377.76 0.454206
3378.14 0.580818
3378.51 0.768044
3378.89 1.06244
3379.27 1.56394
3379.64 2.52517
3379.83 3.36924
3380.02 4.70929
3380.21 7.01038
3380.39 11.4023
3380.49 15.2060
3380.58 21.0462
3380.68 30.3445
3380.77 45.2805
3380.89 72.4472
3381.00 90.5532
3381.12 72.4400
3381.23 45.2761
3381.32 31.3595
3381.40 22.4169
3381.49 16.5156
3381.57 12.6045
3381.74 7.91976
3381.91 5.40494
3382.08 3.90208
3382.25 2.94809
3382.60 1.84544
3382.94 1.25975
3383.28 0.914489
3383.62 0.693679
3383.96 0.544065
3384.64 0.360072
3385.33 0.255889
3386.01 0.191096
3386.69 0.148195
3388.06 0.0965918
3389.42 0.0679499
3390.79 0.0504228
3392.15 0.0389307
3394.88 0.0252555
3397.61 0.0177451
3400.34 0.0131819
3403.07 0.0102042
3408.53 0.00667959
3413.99 0.00475276
3424.91 0.00282315
3435.83 0.00192196
3446.74 0.00142791
3468.58 0.000929189
3512.26 0.000558063
3555.93 0.000416175
3643.28 0.000296787
3730.63 0.000241530
3905.33 0.000184937
4080.04 0.000155110
4429.44 0.000130333
4604.14 0.000148277
4691.49 0.000248839
4735.17 0.000659766
4757.00 0.00229548
4767.92 0.00873417
4770.65 0.0152988
4773.38 0.0336296
4774.75 0.0585648
4776.11 0.126660
4776.79 0.216695
4777.48 0.451356
4777.82 0.743663
4777.99 1.00953
4778.16 1.44265
4778.33 2.22694
4778.41 2.87169
4778.50 3.83078
4778.59 5.35589
4778.67 7.87673
4778.76 12.3705
4778.84 20.6808
4778.92 33.0723
4779.00 41.3262
4779.08 33.0726
4779.16 20.6814
4779.21 14.8350
4779.27 10.8735
4779.32 8.19491
4779.38 6.34561
4779.48 4.07798
4779.59 2.81805
4779.70 2.05553
4779.81 1.56218
4780.02 0.988663
4780.24 0.679215
4780.46 0.494795
4780.89 0.295980
4781.75 0.139915
4782.61 0.0812569
4784.34 0.0373038
4786.06 0.0213646
4789.51 0.00970675
4792.96 0.00555259
4806.77 0.00148816
4834.37 0.000456848
4889.58 0.000196446
5000.00 0.000131129
5178.71 0.000119587
5357.41 0.000128629
5446.76 0.000144183
5536.12 0.000187226
5625.47 0.000411017
5670.15 0.00129356
5692.48 0.00478884
5698.07 0.00838058
5703.65 0.0185171
5706.45 0.0324934
5709.24 0.0714468
5710.63 0.124279
5712.03 0.267946
5712.73 0.456666
5713.08 0.635916
5713.43 0.945232
5713.78 1.54791
5713.95 2.09140
5714.12 2.96886
5714.30 4.53613
5714.39 5.80693
5714.47 7.67181
5714.56 10.5820
5714.65 15.2718
5714.74 23.3405
5714.82 37.7973
5714.91 60.3460
5715.00 75.5803
5715.09 60.3462
5715.18 37.7979
5715.27 22.5085
5715.37 14.2807
5715.46 9.68697
5715.56 6.96480
5715.65 5.21036
5715.75 4.03420
5715.94 2.61898
5716.13 1.82871
5716.31 1.34925
5716.69 0.818654
5717.07 0.548588
5717.45 0.392909
5718.21 0.229919
5719.72 0.106282
5721.24 0.0610290
5724.27 0.0277305
5727.30 0.0158104
5733.36 0.00716729
5739.42 0.00410705
5763.67 0.00112968
5812.16 0.000380600
5909.13 0.000198395
6006.11 0.000172011
6103.09 0.000170690
6297.05 0.000193201
6491.01 0.000241876
6684.96 0.000333576
6878.92 0.000526085
6975.90 0.000712833
7072.88 0.00104593
7121.37 0.00132528
7169.85 0.00176856
7194.10 0.00212149
7218.34 0.00272123
7230.47 0.00330113
7242.59 0.00461729
7254.71 0.0106914
7260.77 0.0333681
7262.29 0.0560287
7263.80 0.117959
7264.56 0.200037
7265.32 0.414921
7265.70 0.684654
7266.08 1.33628
7266.27 2.07635
7266.45 3.61583
7266.55 5.09498
7266.64 7.58389
7266.74 12.1997
7266.83 21.0913
7266.92 33.6669
7267.00 42.1698
7267.08 33.6671
7267.17 21.0916
7267.26 12.0686
7267.36 7.44666
7267.46 4.95898
7267.55 3.52116
7267.75 2.00855
7267.94 1.29291
7268.33 0.660809
7268.72 0.400021
7269.49 0.192588
7270.26 0.113659
7271.81 0.0541805
7273.36 0.0324996
7279.55 0.0110442
7291.93 0.00587841
7304.32 0.00532742
7316.70 0.00555788
7341.47 0.00692305
7366.23 0.00938963
7391.00 0.0136745
7415.77 0.0217200
7428.15 0.0285353
7440.53 0.0387604
7452.92 0.0545591
7465.30 0.0790555
7481.65 0.126329
7498.00 0.157519
7514.35 0.125611
7530.70 0.0783591
7545.41 0.0504886
7560.12 0.0339778
7574.82 0.0240200
7589.53 0.0177305
7618.95 0.0106845
7648.36 0.00709808
7677.78 0.00504824
7707.19 0.00377394
7766.02 0.00234431
7824.85 0.00160603
7883.68 0.00117738
8001.34 0.000727387
8119.00 0.000511118
8236.66 0.000393698
8471.98 0.000286981
8707.30 0.000263958
8942.61 0.000319915
9060.27 0.000420946
9119.10 0.000524068
9177.93 0.000712689
9236.76 0.00111466
9266.18 0.00151386
9295.59 0.00224034
9310.30 0.00285202
9325.01 0.00378607
9339.72 0.00531768
9354.42 0.00809255
9361.78 0.0104158
9369.13 0.0139412
9376.48 0.0196679
9383.84 0.0298939
9387.51 0.0383293
9391.19 0.0509408
9394.87 0.0710098
9398.54 0.105780
9402.22 0.174003
9404.06 0.235775
9405.90 0.336813
9407.74 0.518384
9408.66 0.668069
9409.58 0.890500
9410.49 1.23849
9411.41 1.81723
9412.33 2.84464
9413.25 4.73501
9414.13 7.58437
9415.00 9.48236
9415.88 7.57840
9416.75 4.73338
9417.38 3.31479
9418.02 2.38219
9418.65 1.76814
9419.28 1.35368
9420.55 0.856054
9421.81 0.585499
9423.08 0.423990
9424.34 0.320638
9426.87 0.201252
9429.40 0.137777
9431.93 0.100173
9434.46 0.0760884
9436.99 0.0597640
9442.05 0.0396906
9447.12 0.0282961
9452.18 0.0212163
9457.24 0.0165205
9467.36 0.0108776
9477.48 0.00774865
9487.60 0.00583826
9497.72 0.00458997
9517.97 0.00312096
9538.21 0.00233750
9558.46 0.00189123
9578.70 0.00163987
9619.19 0.00152829
9639.43 0.00168012
9659.67 0.00208034
9679.92 0.00304457
9690.04 0.00402869
9700.16 0.00581355
9705.22 0.00729645
9710.28 0.00952164
9715.34 0.0130734
9720.41 0.0192461
9725.47 0.0313922
9728.00 0.0424189
9730.53 0.0605062
9733.06 0.0931328
9734.32 0.120140
9735.59 0.160431
9736.85 0.223804
9738.12 0.329996
9739.38 0.520553
9740.65 0.876166
9741.82 1.40299
9743.00 1.75443
9744.18 1.40237
9745.35 0.875754
9746.35 0.578869
9747.34 0.397297
9748.34 0.284910
9749.33 0.212574
9751.32 0.129862
9753.31 0.0869882
9755.30 0.0621684
9757.29 0.0466107
9761.27 0.0289918
9765.25 0.0198014
9769.23 0.0144189
9773.21 0.0110005
9777.18 0.00869603
9785.14 0.00587705
9793.10 0.00428372
9801.06 0.00329541
9809.01 0.00263991
9824.93 0.00185016
9840.85 0.00140934
9872.68 0.000957743
9904.51 0.000741469
9936.34 0.000621207
10000.0 0.000500872
10097.6 0.000434891
10195.1 0.000423223
10390.2 0.000474251
10585.3 0.000608341
10780.4 0.000874279
10877.9 0.00110055
10975.4 0.00144392
11073.0 0.00199876
11170.5 0.00297910
11219.3 0.00377877
11268.1 0.00496098
11316.9 0.00681459
11365.6 0.00996072
11414.4 0.0159386
11438.8 0.0211723
11463.2 0.0294381
11487.6 0.0435495
11511.9 0.0702562
11524.1 0.0932655
11536.3 0.128476
11548.5 0.184819
11560.7 0.278755
11572.3 0.434720
11578.1 0.571140
11583.9 0.845044
11590.0 1.26027
11592.0 1.18643
11596.1 0.866627
11602.9 0.578508
11609.7 0.439588
11623.3 0.270594
11634.1 0.189202
11644.9 0.136658
11655.7 0.102021
11666.5 0.0784831
11688.1 0.0500233
11709.7 0.0344038
11731.3 0.0250182
11752.9 0.0189801
11796.1 0.0119725
11839.3 0.00823201
11882.5 0.00601134
11968.9 0.00362543
12055.3 0.00244581
12141.7 0.00178523
12228.2 0.00138656
12314.6 0.00113811
12487.4 0.000913683
12573.8 0.000917370
12660.2 0.00103309
12746.6 0.00138278
12789.8 0.00176049
12833.0 0.00246003
12876.2 0.00393407
12897.8 0.00535751
12919.4 0.00784789
12941.0 0.0127924
12951.8 0.0173210
12962.6 0.0248237
12973.4 0.0385465
12978.8 0.0500788
12984.2 0.0675416
12989.6 0.0955789
12995.0 0.143967
13000.4 0.234653
13005.8 0.414382
13010.4 0.666614
13015.0 0.835856
13019.6 0.665747
13024.2 0.413815
13027.2 0.300320
13030.1 0.222649
13036.1 0.132083
13042.0 0.0858445
13047.9 0.0598188
13053.9 0.0439259
13059.8 0.0335763
13071.6 0.0214342
13083.5 0.0148724
13095.4 0.0109433
13119.1 0.00668230
13142.8 0.00454446
13166.5 0.00332361
13213.9 0.00205404
13261.3 0.00144276
13308.8 0.00110488
13403.6 0.000775800
13498.5 0.000659062
13593.3 0.000700909
13640.7 0.000843317
13664.5 0.000997625
13688.2 0.00128533
13711.9 0.00190442
13723.7 0.00252072
13735.6 0.00364046
13741.5 0.00458212
13747.5 0.00601690
13753.4 0.00836114
13759.3 0.0125754
13762.3 0.0160941
13765.2 0.0213838
13768.2 0.0299361
13771.2 0.0449767
13774.1 0.0754535
13777.1 0.151836
13778.6 0.242552
13779.3 0.321449
13780.1 0.445210
13780.4 0.535035
13780.8 0.654078
13781.2 0.815880
13781.5 1.04224
13781.9 1.36928
13782.3 1.85800
13782.6 2.60960
13783.0 3.76941
13783.5 6.06300
13784.0 7.55434
13784.3 7.09947
13784.5 6.01349
13785.0 3.76889
13785.4 2.44051
13785.9 1.66224
13786.3 1.18548
13786.7 0.880631
13787.6 0.534883
13788.4 0.356734
13789.3 0.254071
13790.2 0.189863
13791.9 0.117361
13793.6 0.0796412
13795.3 0.0575913
13797.0 0.0436094
13798.8 0.0341955
13802.2 0.0227061
13805.6 0.0162317
13809.1 0.0122295
13812.5 0.00958509
13819.4 0.00641708
13826.3 0.00467138
13833.2 0.00360910
13840.1 0.00291686
13853.8 0.00210433
13867.6 0.00167154
13895.1 0.00127198
13922.6 0.00113523
13950.2 0.00112158
14005.2 0.00134382
14032.7 0.00160120
14060.3 0.00202152
14087.8 0.00273182
14115.3 0.00403213
14129.1 0.00512188
14142.8 0.00676889
14156.6 0.00942641
14170.4 0.0141196
14177.2 0.0179511
14184.1 0.0236045
14191.0 0.0324538
14197.9 0.0474283
14204.8 0.0757230
14208.2 0.100326
14211.6 0.138907
14215.1 0.203979
14218.5 0.324759
14220.2 0.426363
14222.0 0.577917
14223.7 0.810318
14225.4 1.16729
14227.7 1.85930
14230.0 2.31662
14232.3 1.85824
14234.6 1.16659
14236.5 0.780639
14238.4 0.541628
14240.3 0.390795
14242.2 0.293157
14246.0 0.180170
14249.8 0.121154
14253.5 0.0867003
14257.3 0.0650603
14264.9 0.0404261
14272.5 0.0275318
14280.0 0.0199644
14287.6 0.0151525
14295.2 0.0119057
14310.3 0.00793414
14325.5 0.00569055
14340.6 0.00430099
14355.7 0.00338141
14386.0 0.00227893
14416.3 0.00166934
14476.9 0.00105736
14537.4 0.000778081
14598.0 0.000636710
14719.1 0.000543650
14840.2 0.000619781
14900.8 0.000744468
14961.4 0.000985347
15021.9 0.00148059
15052.2 0.00193538
15082.5 0.00268264
15112.8 0.00402485
15127.9 0.00512946
15143.0 0.00676600
15158.2 0.00931459
15173.3 0.0135242
15188.5 0.0209216
15196.0 0.0266561
15203.6 0.0343426
15218.3 0.0547762
15233.0 0.0683066
15247.7 0.0546356
15262.4 0.0342033
15272.8 0.0242135
15283.1 0.0175658
15293.5 0.0131425
15303.9 0.0101280
15324.6 0.00648178
15345.4 0.00448369
15366.1 0.00328428
15386.8 0.00251289
15428.3 0.00161812
15469.8 0.00114000
15511.3 0.000855430
15594.2 0.000547898
15677.2 0.000394099
15760.1 0.000306652
15926.0 0.000218650
16091.9 0.000185927
16257.8 0.000198787
16340.8 0.000243928
16423.7 0.000389475
16465.2 0.000598385
16506.7 0.00119677
16527.4 0.00203207
16548.1 0.00440254
16558.5 0.00769100
16568.9 0.0169520
16574.1 0.0296963
16579.2 0.0649925
16581.8 0.112540
16584.4 0.240485
16585.7 0.407237
16586.4 0.564197
16587.0 0.826837
16587.7 1.33509
16588.0 1.79138
16588.3 2.49459
16588.6 3.74400
16589.0 6.05992
16589.1 8.05230
16589.3 11.0910
16589.4 15.8875
16589.6 23.5142
16589.8 37.6246
16590.0 47.0317
16590.2 37.6237
16590.4 23.5137
16590.5 16.6613
16590.7 12.3570
16590.9 7.34139
16591.2 4.70267
16591.5 3.28346
16591.7 2.38654
16592.0 1.82634
16592.5 1.16485
16593.0 0.800452
16593.6 0.583194
16594.6 0.350035
16595.7 0.232210
16596.7 0.165678
16598.8 0.0964413
16603.0 0.0443392
16607.3 0.0254013
16615.7 0.0115327
16624.1 0.00659439
16657.8 0.00176088
16725.2 0.000542746
16792.6 0.000330560
16860.0 0.000283571
16927.4 0.000321506
16994.8 0.000520019
17062.2 0.00169120
17079.1 0.00290930
17095.9 0.00636371
17104.3 0.0111505
17112.8 0.0245650
17117.0 0.0429638
17121.2 0.0935544
17123.3 0.161338
17124.3 0.226392
17125.4 0.340366
17126.5 0.570993
17127.0 0.785211
17127.5 1.13680
17128.0 1.80326
17128.3 2.36269
17128.6 3.22068
17128.8 4.69390
17129.1 7.24056
17129.3 12.2348
17129.5 16.5280
17129.6 22.7730
17129.8 36.4386
17130.0 45.5491
17130.2 36.4377
17130.4 22.7726
17130.6 14.6798
17130.8 9.87938
17130.9 6.98260
17131.1 5.15206
17131.5 3.10041
17131.8 2.05533
17132.2 1.45752
17132.6 1.08553
17133.3 0.671562
17134.0 0.453297
17134.7 0.326253
17136.1 0.192597
17139.0 0.0897036
17141.9 0.0516860
17147.6 0.0235673
17153.4 0.0134550
17176.3 0.00349524
17222.2 0.000949988
17314.1 0.000301855
17497.7 0.000133916
17681.4 0.000101905
17865.0 9.33837E-05
18048.7 9.70434E-05
18232.3 0.000121902
18416.0 0.000269526
18507.8 0.000860063
18553.7 0.00319853
18565.2 0.00559967
18576.7 0.0123712
18582.4 0.0216931
18588.1 0.0476355
18591.0 0.0827427
18593.9 0.177881
18595.3 0.302932
18596.0 0.421551
18596.7 0.622123
18597.5 1.01504
18597.8 1.36613
18598.2 1.91256
18598.5 2.89154
18598.9 4.82080
18599.1 6.54804
18599.3 9.28882
18599.4 13.8406
18599.6 20.9734
18599.8 33.5588
18600.0 41.9492
18600.2 33.5581
18600.4 20.9730
18600.6 13.5198
18600.8 9.28886
18600.9 6.66853
18601.1 4.97829
18601.4 3.04382
18601.8 2.03816
18602.1 1.44199
18602.5 1.08052
18603.1 0.669905
18603.8 0.452673
18604.5 0.327471
18605.9 0.193965
18608.6 0.0904248
18611.3 0.0522100
18616.8 0.0238196
18622.3 0.0136086
18644.1 0.00352227
18687.9 0.000945870
18775.4 0.000295961
18950.3 0.000136986
19125.3 0.000114434
19300.2 0.000116339
19475.2 0.000132435
19650.1 0.000168632
19825.1 0.000252358
19912.5 0.000340059
20000.0 0.000508645
20038.6 0.000637362
20077.2 0.000831885
20115.8 0.00114630
20154.5 0.00170404
20173.8 0.00216117
20193.1 0.00284034
20212.4 0.00391197
20231.7 0.00574544
20251.0 0.00927511
20260.6 0.0124028
20270.3 0.0174081
20280.0 0.0261162
20289.6 0.0430327
20294.4 0.0579889
20299.3 0.0813558
20304.1 0.119608
20308.9 0.182833
20314.5 0.292543
20320.0 0.365530
20325.6 0.292248
20331.1 0.182638
20336.4 0.114507
20341.8 0.0754832
20347.1 0.0525851
20352.4 0.0384091
20357.8 0.0291550
20363.1 0.0228296
20373.7 0.0150423
20384.4 0.0106330
20395.1 0.00791045
20416.4 0.00487414
20437.7 0.00331136
20459.0 0.00240491
20480.3 0.00183283
20501.6 0.00144939
20544.3 0.000983437
20586.9 0.000722384
20672.1 0.000456739
20757.4 0.000332477
20842.6 0.000265913
21013.2 0.000204383
21183.7 0.000183393
21354.2 0.000181171
21695.2 0.000212870
22036.2 0.000305306
22206.7 0.000398924
22377.3 0.000567089
22462.5 0.000706788
22547.8 0.000917964
22633.0 0.00126079
22718.3 0.00187614
22760.9 0.00238830
22803.5 0.00316253
22846.2 0.00441559
22888.8 0.00664476
22910.1 0.00847916
22931.4 0.0112143
22952.7 0.0155570
22974.1 0.0230529
22995.4 0.0376862
23006.0 0.0508585
23016.7 0.0722626
23027.3 0.110390
23032.7 0.141548
23038.0 0.187326
23043.3 0.258166
23048.7 0.373939
23054.0 0.574410
23059.3 0.930427
23064.7 1.48706
23070.0 1.85678
23075.4 1.48579
23080.7 0.929587
23085.8 0.587125
23090.8 0.389386
23095.9 0.272215
23100.9 0.199417
23111.0 0.118895
23121.1 0.0784274
23131.3 0.0554740
23141.4 0.0412735
23161.6 0.0254095
23181.8 0.0172331
23202.0 0.0124866
23222.2 0.00949362
23242.4 0.00748952
23282.9 0.00506122
23323.3 0.00371314
23363.8 0.00289957
23404.2 0.00238515
23485.1 0.00186051
23565.9 0.00182716
23606.4 0.00211455
23626.6 0.00245206
23646.8 0.00309127
23667.0 0.00445792
23677.1 0.00579206
23687.2 0.00814945
23697.3 0.0129184
23702.4 0.0173794
23707.4 0.0249205
23712.5 0.0392217
23715.0 0.0516864
23717.6 0.0711830
23720.1 0.104276
23722.6 0.165674
23723.9 0.217973
23725.1 0.295747
23726.4 0.415592
23727.7 0.600907
23729.3 0.962235
23731.0 1.20121
23732.7 0.959702
23734.4 0.600752
23736.1 0.366545
23737.8 0.237549
23739.5 0.163350
23741.2 0.118533
23742.9 0.0894955
23744.6 0.0699626
23748.0 0.0460625
23751.4 0.0326823
23754.8 0.0244772
23761.6 0.0153928
23768.4 0.0107420
23775.3 0.00806039
23788.9 0.00525034
23802.5 0.00389635
23816.1 0.00315213
23843.4 0.00243375
23897.9 0.00207415
23952.5 0.00226790
24007.0 0.00298118
24034.2 0.00371324
24061.5 0.00501323
24088.8 0.00765227
24102.4 0.0101425
24116.0 0.0144318
24129.7 0.0228064
24136.5 0.0303762
24143.3 0.0427342
24150.1 0.0649562
24153.5 0.0832958
24156.9 0.110476
24160.3 0.153150
24163.7 0.224251
