Zr-94(n,tot) ENDF/B-VII.1
Energy(eV) XS(b)
1.00000E-05 11.1206
1.25000E-05 10.8558
1.50000E-05 10.6603
2.00000E-05 10.3859
2.75000E-05 10.1248
3.50000E-05 9.95301
4.25000E-05 9.82896
5.00000E-05 9.73400
6.25000E-05 9.61557
7.50000E-05 9.52814
0.000100000 9.40543
0.000125000 9.32168
0.000150000 9.25987
0.000200000 9.17310
0.000275000 9.09053
0.000350000 9.03620
0.000425000 8.99697
0.000500000 8.96694
0.000625000 8.92949
0.000750000 8.90184
0.00100000 8.86304
0.00125000 8.83655
0.00150000 8.81701
0.00200000 8.78957
0.00275000 8.76346
0.00350000 8.74627
0.00425000 8.73387
0.00500000 8.72437
0.00625000 8.71253
0.00750000 8.70378
0.0100000 8.69151
0.0125000 8.68313
0.0150000 8.67695
0.0200000 8.66827
0.0253000 8.66204
0.0314750 8.65688
0.0376500 8.65304
0.0500000 8.64763
0.0625000 8.64387
0.0750000 8.64110
0.100000 8.63720
0.125000 8.63453
0.150000 8.63255
0.200000 8.62977
0.275000 8.62709
0.350000 8.62531
0.500000 8.62300
0.750000 8.62074
1.00000 8.61930
1.50000 8.61744
2.00000 8.61616
2.75000 8.61472
3.50000 8.61356
5.00000 8.61164
7.50000 8.60894
10.0000 8.60651
15.0000 8.60197
20.0000 8.59762
27.5000 8.59127
35.0000 8.58502
50.0000 8.57270
75.0000 8.55248
100.000 8.53253
150.000 8.49328
200.000 8.45479
275.000 8.39834
350.000 8.34329
500.000 8.23698
750.000 8.06894
1000.00 7.90865
1250.00 7.75070
1500.00 7.58556
1625.00 7.49396
1750.00 7.38831
1875.00 7.25279
1937.50 7.16197
2000.00 7.03993
2030.29 6.96143
2060.59 6.86195
2090.88 6.72928
2121.17 6.53952
2136.32 6.40869
2151.46 6.23880
2166.61 6.00809
2181.75 5.67498
2189.33 5.44548
2196.90 5.14958
2204.47 4.75370
2212.05 4.19822
2215.83 3.82856
2219.62 3.36994
2223.41 2.79132
2227.19 2.05754
2229.09 1.62762
2230.98 1.17175
2232.87 0.747254
2233.82 0.595469
2234.29 0.553067
2234.76 0.545365
2235.24 0.586422
2235.71 0.695673
2236.19 0.901645
2236.66 1.24409
2237.13 1.78477
2237.61 2.61248
2238.08 3.86964
2238.55 5.78357
2239.03 8.74134
2239.50 13.3950
2239.97 20.9768
2240.44 33.9185
2240.92 57.5411
2241.16 76.7688
2241.39 104.395
2241.63 145.632
2241.86 208.585
2242.10 308.137
2242.34 464.987
2242.67 809.056
2243.00 1094.89
2243.33 946.358
2243.66 637.274
2243.99 424.038
2244.32 296.826
2244.65 219.645
2244.97 170.461
2245.30 137.244
2245.63 113.858
2246.28 83.8810
2246.93 65.9276
2247.59 54.2575
2248.89 40.2854
2250.20 32.3918
2251.51 27.4060
2252.81 24.0052
2254.12 21.5543
2256.73 18.2759
2259.35 16.2005
2261.96 14.7751
2264.57 13.7394
2269.80 12.3386
2275.03 11.4377
2280.25 10.8106
2285.48 10.3494
2295.93 9.71633
2306.39 9.30207
2316.84 9.00950
2327.29 8.79153
2348.20 8.48736
2369.11 8.28402
2390.02 8.13740
2410.92 8.02586
2452.74 7.86528
2494.55 7.75289
2536.37 7.66781
2578.18 7.59972
2661.81 7.49394
2745.44 7.41170
2912.70 7.28212
3247.22 7.07867
3581.74 6.89654
3916.26 6.71084
4250.78 6.50343
4418.04 6.38415
4585.30 6.24823
4668.93 6.17186
4710.74 6.13113
4752.55 6.08858
4794.37 6.04435
4836.18 5.99952
4857.09 5.97852
4878.00 5.96321
4888.45 5.96347
4893.68 5.96963
4898.91 5.98551
4904.13 6.02522
4906.75 6.06679
4909.36 6.14351
4910.67 6.20822
4911.97 6.30672
4913.28 6.46716
4914.59 6.75470
4915.24 6.99358
4915.89 7.35264
4916.55 7.93018
4917.20 8.94909
4917.53 9.78198
4917.85 11.0163
4918.18 12.9590
4918.51 16.2640
4918.83 22.6239
4919.00 28.2344
4919.16 37.1951
4919.32 52.8574
4919.49 83.1195
4919.57 110.011
4919.65 151.557
4919.73 220.214
4919.81 332.343
4919.91 527.558
4920.00 654.703
4920.09 523.323
4920.19 328.096
4920.27 220.003
4920.34 153.385
4920.42 111.882
4920.50 85.0202
4920.66 54.2040
4920.81 38.1649
4920.97 28.8689
4921.12 23.0355
4921.44 16.4328
4921.75 12.9939
4922.06 10.9844
4922.37 9.71179
4922.68 8.85863
4923.31 7.81649
4923.93 7.23262
4924.55 6.87264
4925.18 6.63616
4926.42 6.35436
4927.67 6.19967
4930.17 6.04452
4932.66 5.97178
4935.15 5.93141
4940.14 5.88898
4950.12 5.85142
4960.09 5.82991
4980.05 5.79629
5000.00 5.76472
5023.40 5.72703
5046.79 5.68777
5093.58 5.60330
5140.37 5.50928
5187.16 5.40360
5280.74 5.14495
5374.32 4.78928
5467.89 4.25543
5514.68 3.86749
5561.47 3.33739
5608.26 2.56991
5631.66 2.04745
5655.05 1.40038
5678.45 0.648065
5690.14 0.307650
5695.99 0.196660
5698.92 0.171605
5701.84 0.177152
5704.77 0.224614
5707.69 0.329530
5710.62 0.513721
5713.54 0.807869
5716.46 1.25658
5719.39 1.92472
5722.31 2.91027
5725.24 4.36394
5728.16 6.52570
5731.09 9.78669
5734.01 14.8178
5736.93 22.8164
5739.86 36.0363
5742.78 58.9046
5745.71 100.434
5748.63 177.766
5751.82 322.825
5755.00 454.657
5758.19 407.336
5761.37 283.650
5764.57 193.212
5767.77 138.505
5770.97 105.015
5774.17 83.4817
5780.58 58.7273
5786.98 45.9336
5793.38 39.3487
5796.58 37.9725
5799.78 38.3062
5802.98 41.7686
5804.58 45.8979
5806.18 53.3610
5807.78 67.6721
5808.58 79.8873
5809.38 98.4488
5810.18 128.177
5810.98 179.008
5811.78 272.558
5812.58 452.737
5813.29 710.416
5814.00 881.773
5814.71 708.085
5815.42 449.800
5816.02 303.200
5816.63 214.077
5817.23 158.978
5817.84 123.594
5819.04 83.1232
5820.25 62.0593
5821.46 49.7564
5822.67 41.9502
5825.09 32.8870
5827.50 27.9305
5829.92 24.8462
5832.34 22.7420
5834.75 21.2050
5839.59 19.0753
5844.42 17.6304
5849.26 16.5557
5854.09 15.7075
5863.76 14.4223
5873.43 13.4709
5883.10 12.7253
5892.76 12.1195
5912.10 11.1859
5931.44 10.4937
5950.77 9.95628
5970.11 9.52470
6008.78 8.86911
6047.46 8.38815
6086.13 8.01388
6124.80 7.70887
6202.15 7.22466
6279.50 6.83302
6434.19 6.13984
6588.88 5.36804
6666.23 4.86861
6743.58 4.21433
6782.25 3.79508
6820.92 3.28524
6859.60 2.65236
6898.27 1.85711
6917.61 1.39055
6936.94 0.887813
6956.28 0.391892
6965.95 0.183471
6970.78 0.102859
6975.61 0.0471611
6980.45 0.0264806
6985.28 0.0547943
6987.70 0.0931415
6990.12 0.151613
6992.53 0.233933
6994.95 0.344565
6999.79 0.673347
7004.62 1.19598
7009.45 1.99895
7014.29 3.21417
7019.12 5.04857
7023.96 7.83448
7028.79 12.1278
7033.62 18.8905
7038.46 29.8560
7043.29 48.2577
7048.13 80.2009
7052.96 136.368
7058.98 255.713
7065.00 370.047
7071.02 339.200
7077.04 240.889
7081.94 178.391
7086.85 136.070
7091.75 107.628
7096.65 87.9963
7106.46 63.6256
7116.26 49.6427
7126.07 40.8159
7135.87 34.8332
7155.48 27.3628
7175.09 22.9552
7194.70 20.0786
7214.31 18.0655
7233.92 16.5830
7273.14 14.5523
7312.36 13.2304
7351.58 12.3023
7390.80 11.6149
7469.24 10.6638
7508.46 10.3209
7547.68 10.0368
7586.90 9.79919
7606.51 9.69597
7626.12 9.60398
7635.92 9.56329
7645.73 9.52771
7655.53 9.50012
7665.34 9.48743
7670.24 9.49174
7675.14 9.50951
7680.04 9.55183
7684.95 9.64480
7687.40 9.72931
7689.85 9.86258
7692.30 10.0854
7694.75 10.4921
7695.98 10.8322
7697.20 11.3451
7698.43 12.1710
7699.65 13.6216
7700.27 14.7992
7700.88 16.5315
7701.49 19.2278
7702.10 23.7453
7702.72 32.1924
7703.02 39.4645
7703.33 50.6933
7703.64 69.3746
7703.94 103.067
7704.10 130.673
7704.25 170.839
7704.40 230.577
7704.55 319.291
7704.78 504.692
7705.00 627.828
7705.22 502.916
7705.45 317.515
7705.59 234.838
7705.73 177.748
7706.01 110.240
7706.29 75.2235
7706.57 55.3189
7706.85 43.0858
7707.13 35.0850
7707.69 25.6560
7708.25 20.5422
7708.81 17.4812
7709.93 14.1563
7711.05 12.4867
7712.17 11.5337
7713.29 10.9379
7714.41 10.5411
7716.65 10.0603
7718.89 9.78999
7721.13 9.62172
7723.37 9.50889
7727.86 9.36882
7732.34 9.28539
7736.82 9.22903
7741.30 9.18726
7750.26 9.12625
7759.23 9.08029
7777.15 9.00752
7795.08 8.94636
7813.01 8.89112
7848.86 8.79145
7884.71 8.70184
7920.56 8.61998
7992.27 8.47479
8135.68 8.23923
8279.09 8.05437
8565.91 7.77818
8852.72 7.57702
9139.54 7.42046
9426.36 7.29338
9569.77 7.23856
9713.18 7.18969
9784.89 7.16824
9856.59 7.15020
9892.44 7.14340
9928.30 7.13928
9964.15 7.14000
10000.0 7.15090
10016.1 7.16255
10032.2 7.18235
10048.3 7.21698
10064.4 7.28191
10072.5 7.33692
10080.5 7.42069
10088.6 7.55698
10096.6 7.80073
10100.6 8.00262
10104.7 8.30495
10108.7 8.79107
10112.7 9.64348
10114.7 10.3406
10116.7 11.3659
10118.7 12.9726
10120.8 15.7014
10122.8 20.9378
10123.8 25.5559
10124.8 32.8210
10125.8 45.4589
10126.8 69.4629
10127.3 90.8433
10127.8 123.326
10128.3 175.442
10128.8 259.981
10129.4 411.585
10130.0 512.050
10130.6 409.173
10131.2 257.024
10131.6 183.610
10132.0 134.797
10132.5 102.324
10132.9 80.1967
10133.7 53.4426
10134.6 38.9222
10135.4 30.0944
10136.2 24.4857
10137.9 17.9402
10139.6 14.4403
10141.2 12.3820
10142.9 11.0656
10144.6 10.1745
10147.9 9.08022
10151.3 8.46466
10154.6 8.08429
10158.0 7.83342
10164.6 7.53391
10171.3 7.36971
10178.0 7.26999
10184.7 7.20513
10198.1 7.12828
10211.4 7.08594
10224.8 7.05970
10238.2 7.04193
10264.9 7.01906
10291.7 7.00433
10318.4 6.99343
10345.2 6.98472
10398.7 6.97189
10425.4 6.96817
10452.1 6.96788
10478.9 6.97543
10492.3 6.98621
10505.6 7.00826
10512.3 7.02771
10519.0 7.05796
10525.7 7.10801
10532.4 7.19864
10535.7 7.27449
10539.1 7.38876
10542.4 7.57315
10545.8 7.89957
10547.4 8.16865
10549.1 8.56638
10550.8 9.19438
10552.4 10.2720
10554.1 12.3572
10555.0 14.2332
10555.8 17.2256
10556.6 22.5642
10557.5 33.0567
10557.9 42.6697
10558.3 58.1773
10558.7 84.5497
10559.1 129.000
10559.6 202.062
10560.0 250.512
10560.4 201.260
10560.9 128.016
10561.2 87.8642
10561.6 62.9337
10562.0 47.3065
10562.3 37.1448
10563.0 25.4336
10563.8 19.3748
10564.5 15.7919
10565.2 13.5413
10566.6 11.0042
10568.1 9.66981
10569.5 8.89446
10570.9 8.40208
10572.4 8.07042
10575.2 7.66480
10578.1 7.43759
10581.0 7.29698
10583.8 7.20460
10589.6 7.09388
10595.3 7.03284
10601.0 6.99546
10606.7 6.97078
10618.2 6.94082
10629.7 6.92352
10652.6 6.90388
10675.5 6.89206
10698.5 6.88325
10744.3 6.86913
10836.0 6.84532
10927.8 6.82331
11111.2 6.78158
11294.6 6.74244
11478.1 6.70656
11569.8 6.69048
11661.5 6.67649
11753.2 6.66626
11799.1 6.66385
11845.0 6.66518
11890.8 6.67476
11913.7 6.68664
11936.7 6.70968
11948.1 6.72947
11959.6 6.75980
11971.1 6.80948
11982.5 6.89881
11988.3 6.97320
11994.0 7.08518
11999.7 7.26563
12005.5 7.58469
12008.3 7.84606
12011.2 8.23237
12014.1 8.84320
12016.9 9.88400
12019.8 11.8932
12021.2 13.6694
12022.7 16.5129
12024.1 21.5050
12025.5 31.1937
12026.2 39.8583
12027.0 53.2951
12027.7 75.7081
12028.4 112.613
12029.2 176.290
12030.0 218.668
12030.8 175.828
12031.6 112.060
12032.6 67.1046
12033.5 44.1938
12034.4 31.6472
12035.3 24.3879
12036.3 19.7864
12037.2 16.7673
12039.0 13.1503
12040.9 11.1521
12042.7 9.94394
12046.4 8.62566
12050.1 7.95865
12053.8 7.57787
12057.5 7.33952
12061.2 7.18150
12068.6 6.99129
12076.0 6.88621
12083.4 6.82258
12090.7 6.78156
12105.5 6.73457
12120.3 6.71119
12149.8 6.69463
12179.4 6.69724
12209.0 6.71185
12268.1 6.77945
12297.6 6.84289
12327.2 6.94261
12356.7 7.10792
12386.3 7.40633
12401.1 7.65382
12415.8 8.02511
12430.6 8.61869
12445.4 9.65435
12452.8 10.4907
12460.2 11.7162
12467.6 13.6153
12475.0 16.7885
12482.3 22.6804
12486.0 27.7258
12489.7 35.4866
12493.4 48.3193
12497.1 71.3062
12499.0 90.0771
12500.8 117.084
12502.7 157.207
12504.5 216.081
12507.3 342.253
12510.0 425.923
12512.8 339.846
12515.5 213.245
12517.2 158.008
12518.9 119.575
12522.3 74.2373
12525.8 50.6389
12529.2 37.2651
12532.6 29.0240
12536.0 23.6536
12542.8 17.3277
12549.6 13.9023
12556.5 11.8548
12570.1 9.63655
12583.8 8.52924
12597.4 7.89983
12611.1 7.50876
12624.7 7.24944
12652.0 6.93758
12679.3 6.76398
12706.6 6.65683
12733.9 6.58543
12788.5 6.49734
12843.1 6.44487
12897.7 6.40905
12952.3 6.38199
13061.5 6.34096
13116.2 6.32407
13170.8 6.30890
13225.4 6.29592
13280.0 6.28895
13307.3 6.29382
13320.9 6.30303
13334.6 6.32383
13341.4 6.34323
13348.2 6.37444
13355.0 6.42796
13361.9 6.52825
13365.3 6.61425
13368.7 6.74611
13372.1 6.96273
13375.5 7.35349
13377.2 7.67891
13378.9 8.16792
13380.6 8.94989
13382.3 10.3008
13384.1 12.9714
13384.9 15.3752
13385.8 19.2976
13386.6 26.4171
13387.0 32.2924
13387.5 40.7734
13387.9 54.2641
13388.3 75.9281
13388.7 114.700
13389.2 182.819
13389.6 289.242
13390.0 360.637
13390.4 290.471
13390.8 184.372
13391.3 117.354
13391.7 79.9286
13392.1 57.4007
13392.5 43.7964
13392.9 34.6839
13393.3 28.6051
13394.1 20.9981
13394.9 16.6896
13395.7 14.0247
13397.3 11.0565
13398.9 9.51135
13400.6 8.61141
13402.2 8.04141
13403.8 7.65945
13407.0 7.18880
13410.3 6.92282
13413.5 6.75657
13416.7 6.64606
13423.2 6.51153
13429.7 6.43534
13436.1 6.38753
13442.6 6.35528
13455.5 6.31488
13468.5 6.29072
13494.3 6.26252
13520.2 6.24544
13546.1 6.23298
13597.8 6.21387
13649.6 6.19806
13701.3 6.18370
13804.8 6.15707
13908.3 6.13253
13960.0 6.12155
14011.8 6.11261
14063.5 6.10880
14089.4 6.11173
14115.3 6.12275
14128.2 6.13443
14141.2 6.15416
14154.1 6.18890
14167.0 6.25496
14173.5 6.31175
14180.0 6.39920
14186.4 6.54313
14192.9 6.80293
14196.1 7.01994
14199.4 7.34593
14202.6 7.87149
14205.8 8.79157
14207.5 9.53946
14209.1 10.6389
14210.7 12.3483
14212.3 15.1896
14213.9 20.4973
14214.7 25.0343
14215.5 31.9154
14216.3 43.3295
14217.2 63.6846
14218.0 103.725
14218.4 137.703
14218.8 186.938
14219.4 295.134
14220.0 367.125
14220.6 295.220
14221.2 187.072
14221.8 121.818
14222.4 83.9960
14222.9 60.8521
14223.5 46.5334
14224.6 30.3596
14225.8 22.1989
14226.9 17.4872
14228.0 14.5607
14230.3 11.2873
14232.5 9.58466
14234.8 8.59663
14237.0 7.96829
14239.3 7.54748
14243.8 7.03266
14248.3 6.74225
14252.8 6.56228
14257.3 6.44291
14266.3 6.29889
14275.4 6.21808
14284.4 6.16775
14293.4 6.13392
14311.4 6.09175
14329.5 6.06639
14347.5 6.04908
14365.6 6.03609
14401.6 6.01674
14437.7 6.00173
14509.9 5.97694
14582.0 5.95490
14654.2 5.93398
14798.5 5.89403
14942.8 5.85783
15015.0 5.84334
15087.2 5.83508
15159.3 5.84249
15195.4 5.86062
15231.5 5.90210
15249.5 5.94024
15267.6 6.00054
15285.6 6.10111
15303.6 6.28342
15312.7 6.43454
15321.7 6.66071
15330.7 7.02044
15339.7 7.64288
15348.7 8.86116
15353.3 9.96222
15357.8 11.7630
15362.3 14.9981
15364.5 17.6764
15366.8 21.6457
15369.0 27.9023
15371.3 38.3098
15373.5 56.8952
15375.8 91.3696
15377.9 142.648
15380.0 176.287
15382.1 141.452
15384.2 90.2398
15386.1 59.6888
15388.1 41.7527
15390.0 31.0175
15391.9 24.3043
15395.7 16.7967
15399.5 12.9948
15403.4 10.8299
15407.2 9.48789
15414.9 7.98656
15422.5 7.21231
15430.2 6.76353
15437.9 6.48025
15445.5 6.29004
15460.8 6.05786
15476.2 5.92635
15491.5 5.84380
15506.8 5.78796
15537.5 5.71741
15568.1 5.67390
15629.4 5.61906
15690.7 5.58085
15752.0 5.54871
15874.6 5.49037
16119.8 5.37532
16365.0 5.25235
16610.2 5.11947
16855.4 4.98205
16978.0 4.91957
17100.6 4.87969
17161.9 4.88741
17192.5 4.91059
17223.2 4.96349
17253.8 5.08655
17269.2 5.21019
17284.5 5.43121
17299.8 5.88237
17307.5 6.30714
17315.1 7.03357
17322.8 8.43128
17326.6 9.67204
17330.4 11.6627
17334.3 15.1378
17338.1 21.9528
17340.0 28.0513
17341.9 37.6533
17343.9 53.6624
17345.8 80.5351
17347.9 125.812
17350.0 155.766
17352.1 125.183
17354.2 79.7814
17356.3 51.8190
17358.3 35.7707
17360.3 26.3397
17362.3 20.5192
17366.4 14.0834
17370.4 10.8738
17374.4 9.05638
17378.5 7.93920
17386.5 6.69578
17394.6 6.06102
17402.7 5.69662
17418.8 5.32181
17434.9 5.14974
17451.1 5.06452
17483.3 5.01079
17547.9 5.11979
17612.4 5.48321
17644.7 5.82264
17677.0 6.35343
17709.2 7.22054
17741.5 8.73883
17773.8 11.6978
17789.9 14.3296
17806.1 18.5336
17822.2 25.8072
17838.3 39.7951
17846.4 52.0087
17854.5 70.8998
17862.5 101.265
17870.6 150.539
17880.3 239.410
17890.0 298.652
17899.7 238.811
17909.4 150.042
17919.2 93.1517
17929.0 61.5622
17938.7 43.4338
17948.5 32.3812
17958.3 25.2412
17968.0 20.3949
17987.6 14.4583
18007.1 11.1085
18026.7 9.03319
18065.7 6.68548
18104.8 5.43227
18143.9 4.65994
18183.0 4.12927
18222.1 3.73145
18300.2 3.13752
18378.4 2.66484
18456.5 2.23308
18534.7 1.80607
18691.0 0.917489
18769.2 0.483107
18808.3 0.296462
18847.4 0.159644
18866.9 0.122471
18886.4 0.116387
18906.0 0.152421
18925.5 0.245622
18945.1 0.416665
18964.6 0.694267
18984.1 1.11880
19003.7 1.74774
19023.2 2.66412
19042.8 3.98962
19062.3 5.90513
19081.8 8.68302
19101.4 12.7367
19120.9 18.6921
19140.5 27.4719
19160.0 40.3281
19180.0 59.0919
19200.0 83.8106
19240.0 131.819
19260.0 137.850
19280.0 129.524
19320.0 97.5880
19368.7 66.8327
19417.4 48.7853
19466.1 37.9977
19514.7 31.0901
19563.4 26.3568
19612.1 22.9083
19636.4 21.5019
19660.8 20.2556
19672.9 19.6929
19679.0 19.4326
19685.1 19.1964
19691.2 19.0064
19694.2 18.9480
19697.3 18.9425
19700.3 19.0550
19701.9 19.2093
19703.4 19.5085
19704.9 20.1289
19705.7 20.7016
19706.4 21.6486
19707.2 23.3764
19707.6 24.8308
19707.9 27.0472
19708.3 30.6581
19708.7 37.0740
19708.9 42.2685
19709.1 49.7674
19709.3 60.8400
19709.5 78.0985
19709.7 111.143
19710.0 130.425
19710.3 104.789
19710.5 70.1318
19710.8 47.7302
19711.1 35.9665
19711.4 29.5541
19711.7 25.9076
19712.0 23.5364
19712.3 22.0245
19712.8 20.1981
19713.4 19.2141
19714.0 18.6299
19715.1 18.0031
19716.3 17.6867
19717.4 17.5016
19719.7 17.2833
19724.3 17.0247
19728.8 16.8166
19737.9 16.4096
19747.1 15.9857
19756.2 15.5362
19765.3 15.0547
19783.6 13.9439
19801.9 12.4755
19811.0 11.4897
19820.1 10.2025
19829.3 8.40468
19833.8 7.20247
19838.4 5.71318
19843.0 3.88177
19845.3 2.87972
19847.5 1.94887
19848.7 1.60087
19849.8 1.44573
19851.0 1.64114
19851.5 1.95342
19852.1 2.47753
19852.7 3.28883
19853.2 4.49073
19853.8 6.22573
19854.4 8.69049
19855.0 12.1555
19855.5 16.9883
19856.1 23.6750
19856.7 32.8225
19857.5 52.1861
19858.3 79.2384
19860.0 140.605
19860.8 154.780
19861.7 152.206
19863.3 123.991
19864.4 105.418
19865.5 90.3873
19867.6 69.7119
19869.8 57.0774
19871.9 48.9090
19874.0 43.2517
19876.2 39.1748
19880.4 33.6987
19884.7 30.2227
19889.0 27.8277
19897.5 24.7418
19906.1 22.8311
19914.6 21.5231
19931.7 19.8296
19965.8 18.0389
20000.0 17.1417
20049.9 16.7249
20074.8 16.9538
20099.7 17.6827
20124.6 19.3917
20137.1 20.9684
20149.6 23.4616
20162.0 27.6020
20174.5 34.9379
20186.9 49.0355
20193.2 60.8587
20199.4 77.7011
20209.7 117.189
20220.0 143.871
20230.3 117.658
20240.6 78.2627
20248.2 58.3573
20255.8 45.3548
20263.3 36.8161
20270.9 31.0467
20286.0 24.1042
20301.2 20.2894
20316.3 17.9726
20331.5 16.4547
20361.7 14.6226
20392.0 13.5678
20422.3 12.8789
20482.9 12.0092
20543.4 11.4537
20604.0 11.0468
20725.1 10.4532
20846.3 10.0136
20967.4 9.65921
21209.7 9.09353
21451.9 8.62132
21694.2 8.14624
21815.3 7.85697
21875.9 7.67884
21936.4 7.46023
21997.0 7.17353
22027.3 6.98939
22057.6 6.76429
22087.9 6.48289
22103.0 6.31647
22118.1 6.13422
22133.3 5.95205
22140.8 5.88034
22148.4 5.85654
22152.2 5.88558
22156.0 5.96996
22159.8 6.15852
22163.6 6.55916
22165.5 6.91687
22167.3 7.46499
22169.2 8.34798
22171.1 9.86926
22173.0 12.7883
22174.0 15.3346
22174.9 19.2727
22175.9 25.9449
22176.8 38.0612
22177.3 48.3682
22177.8 63.2886
22178.2 85.8177
22178.7 119.840
22179.4 188.693
22180.0 232.935
22180.7 185.921
22181.3 117.738
22181.9 78.1796
22182.5 54.3447
22183.0 39.7751
22183.6 30.4788
22184.7 19.9569
22185.9 14.5743
22187.0 11.4301
22188.1 9.46606
22190.4 7.19428
22192.7 5.95882
22194.9 5.18421
22197.2 4.64218
22199.5 4.22776
22204.0 3.58945
22208.6 3.06393
22217.7 2.07719
22226.7 1.04559
22231.3 0.550030
22233.6 0.341153
22235.8 0.191316
22238.1 0.147213
22240.4 0.289056
22241.5 0.471227
22242.6 0.757877
