Zr-94(n,g) ENDF/B-VII.1
Energy(eV) XS(b)
1.00000E-05 2.50843
1.25000E-05 2.24361
1.50000E-05 2.04812
2.00000E-05 1.77373
2.75000E-05 1.51264
3.50000E-05 1.34081
4.25000E-05 1.21677
5.00000E-05 1.12180
6.25000E-05 1.00337
7.50000E-05 0.915948
0.000100000 0.793234
0.000125000 0.709490
0.000150000 0.647673
0.000200000 0.560901
0.000275000 0.478338
0.000350000 0.424002
0.000425000 0.384775
0.000500000 0.354745
0.000625000 0.317294
0.000750000 0.289648
0.00100000 0.250843
0.00125000 0.224361
0.00150000 0.204812
0.00200000 0.177373
0.00275000 0.151264
0.00350000 0.134081
0.00425000 0.121676
0.00500000 0.112180
0.00625000 0.100337
0.00750000 0.0915946
0.0100000 0.0793232
0.0125000 0.0709488
0.0150000 0.0647670
0.0200000 0.0560898
0.0253000 0.0498698
0.0314750 0.0447110
0.0376500 0.0408803
0.0500000 0.0354740
0.0625000 0.0317287
0.0750000 0.0289641
0.100000 0.0250835
0.125000 0.0224352
0.150000 0.0204802
0.200000 0.0177361
0.275000 0.0151251
0.350000 0.0134066
0.500000 0.0112162
0.750000 0.00915728
1.00000 0.00792981
1.50000 0.00647363
2.00000 0.00560543
2.75000 0.00477918
3.50000 0.00423527
5.00000 0.00354179
7.50000 0.00288956
10.0000 0.00250044
15.0000 0.00203836
20.0000 0.00176249
27.5000 0.00149951
35.0000 0.00132606
50.0000 0.00110430
75.0000 0.000894790
100.000 0.000769120
150.000 0.000618909
200.000 0.000528569
275.000 0.000441963
350.000 0.000384691
500.000 0.000311903
750.000 0.000246038
1000.00 0.000212376
1250.00 0.000199341
1500.00 0.000210847
1625.00 0.000233990
1750.00 0.000283714
1875.00 0.000399332
1937.50 0.000519102
2000.00 0.000743553
2030.29 0.000929943
2060.59 0.00121635
2090.88 0.00168955
2121.17 0.00255617
2136.32 0.00328962
2151.46 0.00441493
2166.61 0.00627131
2181.75 0.00966447
2189.33 0.0125305
2196.90 0.0169184
2204.47 0.0241345
2212.05 0.0372611
2215.83 0.0482943
2219.62 0.0650949
2223.41 0.0925332
2227.19 0.141898
2229.09 0.182954
2230.98 0.244779
2232.87 0.344208
2233.82 0.418372
2234.29 0.464722
2234.76 0.519213
2235.24 0.584014
2235.71 0.661544
2236.19 0.755781
2236.66 0.871348
2237.13 1.01583
2237.61 1.19885
2238.08 1.43586
2238.55 1.75021
2239.03 2.18027
2239.50 2.78690
2239.97 3.68189
2240.44 5.07617
2240.92 7.41253
2241.16 9.20667
2241.39 11.6837
2241.63 15.2370
2241.86 20.4470
2242.10 28.3448
2242.34 40.2192
2242.67 64.3538
2243.00 80.3549
2243.33 64.2527
2243.66 40.1358
2243.99 24.8627
2244.32 16.2402
2244.65 11.2384
2244.97 8.17483
2245.30 6.17976
2245.63 4.82243
2246.28 3.16018
2246.93 2.22276
2247.59 1.64657
2248.89 1.00532
2250.20 0.676012
2251.51 0.485255
2252.81 0.365059
2254.12 0.284558
2256.73 0.186689
2259.35 0.131815
2261.96 0.0979831
2264.57 0.0756842
2269.80 0.0490355
2275.03 0.0343328
2280.25 0.0253744
2285.48 0.0195176
2295.93 0.0125781
2306.39 0.00878246
2316.84 0.00648384
2327.29 0.00498779
2348.20 0.00322390
2369.11 0.00226404
2390.02 0.00168489
2410.92 0.00130904
2452.74 0.000867363
2494.55 0.000627852
2536.37 0.000483737
2578.18 0.000390417
2661.81 0.000281062
2745.44 0.000222028
2912.70 0.000164195
3247.22 0.000126525
3581.74 0.000120780
3916.26 0.000131260
4250.78 0.000163351
4418.04 0.000197577
4585.30 0.000269825
4668.93 0.000351191
4710.74 0.000425267
4752.55 0.000553762
4794.37 0.000818688
4836.18 0.00155148
4857.09 0.00256300
4878.00 0.00543038
4888.45 0.00942188
4893.68 0.0134195
4898.91 0.0207436
4904.13 0.0364566
4906.75 0.0521399
4909.36 0.0807438
4910.67 0.104858
4911.97 0.141683
4913.28 0.202018
4914.59 0.311009
4915.24 0.402159
4915.89 0.539892
4916.55 0.762668
4917.20 1.15803
4917.53 1.48262
4917.85 1.96516
4918.18 2.72710
4918.51 4.02756
4918.83 6.53849
4919.00 8.75884
4919.16 12.3111
4919.32 18.5311
4919.49 30.5709
4919.57 41.2839
4919.65 57.8517
4919.73 85.2608
4919.81 130.082
4919.91 208.270
4920.00 259.527
4920.09 207.377
4920.19 129.386
4920.27 86.1197
4920.34 59.4220
4920.42 42.7718
4920.50 31.9846
4920.66 19.5935
4920.81 13.1329
4920.97 9.38196
4921.12 7.02422
4921.44 4.34935
4921.75 2.95156
4922.06 2.13214
4922.37 1.61151
4922.68 1.26138
4923.31 0.831806
4923.93 0.589664
4924.55 0.439501
4925.18 0.340307
4926.42 0.221249
4927.67 0.155315
4930.17 0.0886292
4932.66 0.0572791
4935.15 0.0400835
4940.14 0.0228391
4950.12 0.0104041
4960.09 0.00602224
4980.05 0.00288371
5000.00 0.00178932
5023.40 0.00123229
5046.79 0.000963964
5093.58 0.000741366
5140.37 0.000678979
5187.16 0.000684615
5280.74 0.000817147
5374.32 0.00112444
5467.89 0.00177943
5514.68 0.00240027
5561.47 0.00346604
5608.26 0.00554399
5631.66 0.00743496
5655.05 0.0105908
5678.45 0.0165583
5690.14 0.0218597
5695.99 0.0256156
5698.92 0.0278987
5701.84 0.0305278
5704.77 0.0335810
5707.69 0.0371563
5710.62 0.0413884
5713.54 0.0464518
5716.46 0.0525929
5719.39 0.0601464
5722.31 0.0695993
5725.24 0.0816639
5728.16 0.0974251
5731.09 0.118564
5734.01 0.147844
5736.93 0.189963
5739.86 0.253337
5742.78 0.353555
5745.71 0.520154
5748.63 0.802835
5751.82 1.27172
5755.00 1.58460
5758.19 1.27645
5761.37 0.814384
5764.57 0.519569
5767.77 0.358269
5770.97 0.269534
5774.17 0.220225
5780.58 0.184180
5786.98 0.202186
5793.38 0.286669
5796.58 0.378396
5799.78 0.543719
5802.98 0.875805
5804.58 1.18055
5806.18 1.68409
5807.78 2.60105
5808.58 3.36658
5809.38 4.51822
5810.18 6.35013
5810.98 9.46889
5811.78 15.1948
5812.58 26.2120
5813.29 41.9719
5814.00 52.4861
5814.71 41.9295
5815.42 26.1802
5816.02 17.2375
5816.63 11.8024
5817.23 8.44488
5817.84 6.29170
5819.04 3.83653
5820.25 2.56719
5821.46 1.83305
5822.67 1.37335
5825.09 0.852854
5827.50 0.581311
5829.92 0.422157
5832.34 0.320959
5834.75 0.252622
5839.59 0.168819
5844.42 0.121264
5849.26 0.0916289
5854.09 0.0718770
5863.76 0.0479213
5873.43 0.0344314
5883.10 0.0260486
5892.76 0.0204637
5912.10 0.0136836
5931.44 0.00985822
5950.77 0.00747851
5970.11 0.00589363
6008.78 0.00397477
6047.46 0.00290039
6086.13 0.00224024
6124.80 0.00180827
6202.15 0.00130575
6279.50 0.00105258
6434.19 0.000897682
6588.88 0.00107272
6666.23 0.00134244
6743.58 0.00187434
6782.25 0.00233103
6820.92 0.00302852
6859.60 0.00416148
6898.27 0.00617243
6917.61 0.00781711
6936.94 0.0102535
6956.28 0.0140816
6965.95 0.0168717
6970.78 0.0185925
6975.61 0.0205932
6980.45 0.0229380
6985.28 0.0257086
6987.70 0.0272865
6990.12 0.0290144
6992.53 0.0309119
6994.95 0.0330014
6999.79 0.0378679
7004.62 0.0438889
7009.45 0.0514542
7014.29 0.0611289
7019.12 0.0737580
7023.96 0.0906288
7028.79 0.113793
7033.62 0.146619
7038.46 0.194837
7043.29 0.268458
7048.13 0.384825
7052.96 0.570145
7058.98 0.911741
7065.00 1.13850
7071.02 0.909727
7077.04 0.568208
7081.94 0.381218
7086.85 0.264683
7091.75 0.191382
7096.65 0.143605
7106.46 0.0883798
7116.26 0.0594213
7126.07 0.0425500
7135.87 0.0319210
7155.48 0.0198386
7175.09 0.0135152
7194.70 0.00980618
7214.31 0.00744976
7233.92 0.00586196
7273.14 0.00392532
7312.36 0.00283955
7351.58 0.00217733
7390.80 0.00175301
7469.24 0.00131097
7508.46 0.00124127
7547.68 0.00129572
7586.90 0.00159288
7606.51 0.00195107
7626.12 0.00264954
7635.92 0.00325704
7645.73 0.00420117
7655.53 0.00577330
7665.34 0.00866601
7670.24 0.0111181
7675.14 0.0148785
7680.04 0.0210732
7684.95 0.0323519
7687.40 0.0418397
7689.85 0.0562889
7692.30 0.0798802
7694.75 0.122322
7695.98 0.157599
7697.20 0.210672
7698.43 0.296021
7699.65 0.445907
7700.27 0.567644
7700.88 0.746807
7701.49 1.02587
7702.10 1.49382
7702.72 2.36964
7703.02 3.12419
7703.33 4.28994
7703.64 6.23054
7703.94 9.73259
7704.10 12.6034
7704.25 16.7820
7704.40 22.9988
7704.55 32.2356
7704.78 51.5549
7705.00 64.4223
7705.22 51.4576
7705.45 32.1603
7705.59 23.5481
7705.73 17.5987
7706.01 10.5600
7706.29 6.90682
7706.57 4.82897
7706.85 3.55125
7707.13 2.71515
7707.69 1.72911
7708.25 1.19384
7708.81 0.873169
7709.93 0.524524
7711.05 0.349291
7712.17 0.249230
7713.29 0.186702
7714.41 0.145114
7716.65 0.0949086
7718.89 0.0669321
7721.13 0.0497658
7723.37 0.0384852
7727.86 0.0250386
7732.34 0.0176394
7736.82 0.0131356
7741.30 0.0101925
7750.26 0.00670442
7759.23 0.00479316
7777.15 0.00287329
7795.08 0.00197162
7813.01 0.00147387
7848.86 0.000965242
7884.71 0.000718012
7920.56 0.000575567
7992.27 0.000419810
8135.68 0.000283726
8279.09 0.000220794
8565.91 0.000161817
8852.72 0.000138234
9139.54 0.000134416
9426.36 0.000155294
9569.77 0.000186654
9713.18 0.000258566
9784.89 0.000332782
9856.59 0.000472393
9892.44 0.000593716
9928.30 0.000784888
9964.15 0.00111235
10000.0 0.00174572
10016.1 0.00224240
10032.2 0.00300375
10048.3 0.00425793
10064.4 0.00654472
10072.5 0.00847084
10080.5 0.0114108
10088.6 0.0162242
10096.6 0.0249198
10100.6 0.0321858
10104.7 0.0431448
10108.7 0.0609016
10112.7 0.0922964
10114.7 0.118131
10116.7 0.156292
10118.7 0.216367
10120.8 0.318876
10122.8 0.516525
10123.8 0.691428
10124.8 0.967266
10125.8 1.44831
10126.8 2.36437
10127.3 3.18187
10127.8 4.42569
10128.3 6.42446
10128.8 9.67262
10129.4 15.5145
10130.0 19.4233
10130.6 15.5112
10131.2 9.67048
10131.6 6.84440
10132.0 4.96237
10132.5 3.70862
10132.9 2.85324
10133.7 1.81725
10134.6 1.25372
10135.4 0.910364
10136.2 0.691753
10137.9 0.435871
10139.6 0.298482
10141.2 0.217349
10142.9 0.165247
10144.6 0.129838
10147.9 0.0861073
10151.3 0.0613155
10154.6 0.0458802
10158.0 0.0356256
10164.6 0.0232647
10171.3 0.0164038
10178.0 0.0121947
10184.7 0.00943580
10198.1 0.00614972
10211.4 0.00434724
10224.8 0.00325346
10238.2 0.00254132
10264.9 0.00170447
10291.7 0.00125623
10318.4 0.000996039
10345.2 0.000841929
10398.7 0.000731329
10425.4 0.000769293
10452.1 0.000909767
10478.9 0.00128000
10492.3 0.00167210
10505.6 0.00240305
10512.3 0.00302553
10519.0 0.00398090
10525.7 0.00555247
10532.4 0.00839881
10535.7 0.0107887
10539.1 0.0144022
10542.4 0.0202599
10545.8 0.0306869
10547.4 0.0393187
10549.1 0.0521188
10550.8 0.0723977
10552.4 0.107318
10554.1 0.175131
10555.0 0.236299
10555.8 0.334054
10556.6 0.508795
10557.5 0.852917
10557.9 1.16865
10558.3 1.67856
10558.7 2.54677
10559.1 4.01218
10559.6 6.42581
10560.0 8.03703
10560.4 6.42484
10560.9 4.01154
10561.2 2.68597
10561.6 1.86188
10562.0 1.34476
10562.3 1.00817
10563.0 0.619749
10563.8 0.418444
10564.5 0.299196
10565.2 0.224167
10566.6 0.139385
10568.1 0.0946517
10569.5 0.0685758
10570.9 0.0519654
10572.4 0.0407433
10575.2 0.0269625
10578.1 0.0192011
10581.0 0.0143746
10583.8 0.0111902
10589.6 0.00735580
10595.3 0.00523454
10601.0 0.00393677
10606.7 0.00308511
10618.2 0.00207082
10629.7 0.00151295
10652.6 0.000949444
10675.5 0.000683355
10698.5 0.000535988
10744.3 0.000385579
10836.0 0.000274009
10927.8 0.000235953
11111.2 0.000222693
11294.6 0.000249109
11478.1 0.000317796
11569.8 0.000380587
11661.5 0.000482587
11753.2 0.000671153
11799.1 0.000839570
11845.0 0.00112428
11890.8 0.00169175
11913.7 0.00223417
11936.7 0.00319984
11948.1 0.00400275
11959.6 0.00521816
11971.1 0.00719864
11982.5 0.0107597
11988.3 0.0137319
11994.0 0.0182176
11999.7 0.0254688
12005.5 0.0383363
12008.3 0.0489064
12011.2 0.0645614
12014.1 0.0893669
12016.9 0.131724
12019.8 0.213671
12021.2 0.286231
12022.7 0.402521
12024.1 0.606921
12025.5 1.00409
12026.2 1.35959
12027.0 1.91125
12027.7 2.83210
12028.4 4.34959
12029.2 6.97132
12030.0 8.72335
12030.8 6.96965
12031.6 4.34850
12032.6 2.49811
12033.5 1.55409
12034.4 1.03667
12035.3 0.737055
12036.3 0.546983
12037.2 0.422178
12039.0 0.272502
12040.9 0.189687
12042.7 0.139544
12046.4 0.0847153
12050.1 0.0568903
12053.8 0.0409570
12057.5 0.0309521
12061.2 0.0242979
12068.6 0.0162473
12076.0 0.0117637
12083.4 0.00902105
12090.7 0.00723031
12105.5 0.00512339
12120.3 0.00400346
12149.8 0.00298695
12179.4 0.00266667
12209.0 0.00267862
12268.1 0.00340116
12297.6 0.00418501
12327.2 0.00544615
12356.7 0.00755907
12386.3 0.0114039
12401.1 0.0146124
12415.8 0.0194507
12430.6 0.0272305
12445.4 0.0408929
12452.8 0.0519814
12460.2 0.0682879
12467.6 0.0936568
12475.0 0.136214
12482.3 0.215563
12486.0 0.283716
12489.7 0.388778
12493.4 0.562893
12497.1 0.875519
12499.0 1.13126
12500.8 1.49969
12502.7 2.04786
12504.5 2.85356
12507.3 4.58546
12510.0 5.74621
12512.8 4.58173
12515.5 2.85112
12517.2 2.09381
12518.9 1.56604
12522.3 0.942283
12525.8 0.616831
12529.2 0.431976
12532.6 0.317822
12536.0 0.243276
12542.8 0.155214
12549.6 0.107339
12556.5 0.0786118
12570.1 0.0473259
12583.8 0.0315985
12597.4 0.0226023
12611.1 0.0169820
12624.7 0.0132385
12652.0 0.00871767
12679.3 0.00619830
12706.6 0.00465235
12733.9 0.00363683
12788.5 0.00243073
12843.1 0.00177475
12897.7 0.00138655
12952.3 0.00114842
13061.5 0.000941184
13116.2 0.000953313
13170.8 0.00108118
13225.4 0.00145906
13280.0 0.00265024
13307.3 0.00434928
13320.9 0.00605689
13334.6 0.00918417
13341.4 0.0118283
13348.2 0.0158674
13355.0 0.0225083
13361.9 0.0345306
13365.3 0.0446280
13368.7 0.0599071
13372.1 0.0847062
13375.5 0.128938
13377.2 0.165498
13378.9 0.220153
13380.6 0.307113
13382.3 0.456604
13384.1 0.750709
13384.9 1.01453
13385.8 1.44402
13386.6 2.22166
13387.0 2.86230
13387.5 3.78591
13387.9 5.25325
13388.3 7.60646
13388.7 11.8119
13389.2 19.1883
13389.6 30.6853
13390.0 38.3416
13390.4 30.6822
13390.8 19.1863
13391.3 11.9418
13391.7 7.90266
13392.1 5.47467
13392.5 4.01027
13392.9 3.03055
13393.3 2.37776
13394.1 1.56218
13394.9 1.10128
13395.7 0.816834
13397.3 0.500997
13398.9 0.337300
13400.6 0.242383
13402.2 0.182533
13403.8 0.142606
13407.0 0.0937301
13410.3 0.0663707
13413.5 0.0494405
13416.7 0.0383035
13423.2 0.0249599
13429.7 0.0175890
13436.1 0.0130929
13442.6 0.0101534
13455.5 0.00665950
13468.5 0.00474515
13494.3 0.00282309
13520.2 0.00192421
13546.1 0.00143230
13597.8 0.000939362
13649.6 0.000711010
13701.3 0.000590457
13804.8 0.000492851
13908.3 0.000512687
13960.0 0.000578943
14011.8 0.000723502
14063.5 0.00105703
14089.4 0.00139813
14115.3 0.00202734
14128.2 0.00256124
14141.2 0.00338035
14154.1 0.00472942
14167.0 0.00718304
14173.5 0.00924646
14180.0 0.0123887
14186.4 0.0175161
14192.9 0.0267131
14196.1 0.0343687
14199.4 0.0458476
14202.6 0.0643245
14205.8 0.0966298
14207.5 0.122869
14209.1 0.161424
14210.7 0.221342
14212.3 0.320893
14213.9 0.506794
14214.7 0.665662
14215.5 0.906566
14216.3 1.30610
14217.2 2.01848
14218.0 3.41953
14218.4 4.60829
14218.8 6.33061
14219.4 10.1147
14220.0 12.6306
14220.6 10.1131
14221.2 6.32956
14221.8 4.04719
14222.4 2.72453
14222.9 1.91527
14223.5 1.41466
14224.6 0.849295
14225.8 0.564101
14226.9 0.399482
14228.0 0.297257
14230.3 0.182964
14232.5 0.123547
14234.8 0.0890914
14237.0 0.0671960
14239.3 0.0525453
14243.8 0.0346479
14248.3 0.0245782
14252.8 0.0183588
14257.3 0.0142508
14266.3 0.00933325
14275.4 0.00661433
14284.4 0.00495486
14293.4 0.00386816
14311.4 0.00257853
14329.5 0.00187160
14347.5 0.00144273
14365.6 0.00116320
14401.6 0.000833462
14437.7 0.000654451
14509.9 0.000479232
14582.0 0.000403804
14654.2 0.000370701
14798.5 0.000369421
14942.8 0.000445460
15015.0 0.000535164
15087.2 0.000704285
15159.3 0.00106870
15195.4 0.00143091
15231.5 0.00208778
15249.5 0.00263795
15267.6 0.00347311
15285.6 0.00483027
15303.6 0.00725568
15312.7 0.00925745
15321.7 0.0122521
15330.7 0.0170215
15339.7 0.0252979
15348.7 0.0415653
15353.3 0.0563203
15357.8 0.0805216
15362.3 0.124133
15364.5 0.160323
15366.8 0.214049
15369.0 0.298887
15371.3 0.440279
15373.5 0.693299
15375.8 1.16379
15377.9 1.86603
15380.0 2.33165
15382.1 1.86154
15384.2 1.16317
15386.1 0.745182
15388.1 0.499254
15390.0 0.351789
15391.9 0.259415
15395.7 0.155882
15399.5 0.103296
15403.4 0.0732680
15407.2 0.0546041
15414.9 0.0336530
15422.5 0.0228020
15430.2 0.0164913
15437.9 0.0124989
15445.5 0.00981532
15460.8 0.00654417
15476.2 0.00470546
15491.5 0.00356956
15506.8 0.00282032
15537.5 0.00192450
15568.1 0.00143095
15629.4 0.000936920
15690.7 0.000710429
15752.0 0.000591723
15874.6 0.000487322
16119.8 0.000464710
16365.0 0.000544522
16610.2 0.000721465
16855.4 0.00109024
16978.0 0.00145006
17100.6 0.00216010
17161.9 0.00290252
17192.5 0.00354359
17223.2 0.00460607
17253.8 0.00667998
17269.2 0.00862363
17284.5 0.0120022
17299.8 0.0187970
17307.5 0.0251662
17315.1 0.0360545
17322.8 0.0570304
17326.6 0.0756816
17330.4 0.105652
17334.3 0.158064
17338.1 0.261059
17340.0 0.353368
17341.9 0.498886
17343.9 0.741831
17345.8 1.15029
17347.9 1.84018
17350.0 2.30024
17352.1 1.83939
17354.2 1.14983
17356.3 0.724075
17358.3 0.479312
17360.3 0.335268
17362.3 0.246255
17366.4 0.147670
17370.4 0.0983943
17374.4 0.0704347
17378.5 0.0532162
17386.5 0.0340070
17394.6 0.0241725
17402.7 0.0185133
17418.8 0.0126737
17434.9 0.00997355
17451.1 0.00860982
17483.3 0.00762604
17547.9 0.00848360
17612.4 0.0117872
17644.7 0.0147379
17677.0 0.0192076
17709.2 0.0263179
17741.5 0.0385136
17773.8 0.0619342
17789.9 0.0826142
17806.1 0.115528
17822.2 0.172326
17838.3 0.281370
17846.4 0.376508
17854.5 0.523611
17862.5 0.760016
17870.6 1.14360
17880.3 1.83548
17890.0 2.29703
17899.7 1.83179
17909.4 1.14116
17919.2 0.698525
17929.0 0.452781
17938.7 0.311808
17948.5 0.225916
17958.3 0.170483
17968.0 0.132910
17987.6 0.0870135
18007.1 0.0612690
18026.7 0.0454590
18065.7 0.0279111
18104.8 0.0189302
18143.9 0.0137397
18183.0 0.0104788
18222.1 0.00830318
18300.2 0.00568869
18378.4 0.00426533
18456.5 0.00344194
18534.7 0.00296901
18691.0 0.00270501
18769.2 0.00289232
18808.3 0.00309163
18847.4 0.00338768
18866.9 0.00358230
18886.4 0.00381554
18906.0 0.00409532
18925.5 0.00443174
18945.1 0.00483798
18964.6 0.00533139
18984.1 0.00593511
19003.7 0.00668035
19023.2 0.00760979
19042.8 0.00878251
19062.3 0.0102812
19081.8 0.0122225
19101.4 0.0147705
19120.9 0.0181517
19140.5 0.0226598
19160.0 0.0286119
19180.0 0.0363528
19200.0 0.0451810
19240.0 0.0561033
19260.0 0.0527785
19280.0 0.0449433
19320.0 0.0283861
19368.7 0.0162194
19417.4 0.0102250
19466.1 0.00712104
19514.7 0.00541819
19563.4 0.00450414
19612.1 0.00423635
19636.4 0.00451115
19660.8 0.00567704
19672.9 0.00740354
19679.0 0.00914058
19685.1 0.0123023
19691.2 0.0190198
19694.2 0.0256276
19697.3 0.0375057
19700.3 0.0623335
19701.9 0.0862548
19703.4 0.128309
19704.9 0.212704
19705.7 0.291004
19706.4 0.422656
19707.2 0.669048
19707.6 0.881193
19707.9 1.21055
19708.3 1.75831
19708.7 2.75425
19708.9 3.57524
19709.1 4.77715
19709.3 6.57993
19709.5 9.44429
19709.7 15.1210
19710.0 18.8868
19710.3 15.1203
19710.5 9.44391
19710.8 5.63305
19711.1 3.57525
19711.4 2.42626
19711.7 1.75840
19712.0 1.31509
19712.3 1.02676
19712.8 0.669160
19713.4 0.469742
19714.0 0.347751
19715.1 0.212823
19716.3 0.143523
19717.4 0.103941
19719.7 0.0623763
19724.3 0.0308073
19728.8 0.0192936
19737.9 0.0109023
19747.1 0.00802955
19756.2 0.00683910
19765.3 0.00637902
19783.6 0.00664173
19801.9 0.00846910
19811.0 0.0104669
19820.1 0.0140785
19829.3 0.0214134
19833.8 0.0282372
19838.4 0.0396807
19843.0 0.0611096
19845.3 0.0794811
19847.5 0.107918
19848.7 0.128500
19849.8 0.155272
19851.0 0.191165
19851.5 0.213806
19852.1 0.240528
19852.7 0.272291
19853.2 0.310315
19853.8 0.356151
19854.4 0.411755
19855.0 0.479553
19855.5 0.562436
19856.1 0.663593
19856.7 0.785934
19857.5 1.00658
19858.3 1.25566
19860.0 1.56872
19860.8 1.47547
19861.7 1.25540
19863.3 0.785693
19864.4 0.573620
19865.5 0.427029
19867.6 0.255353
19869.8 0.167210
19871.9 0.117622
