Zr-92(n,tot) ENDF/B-VII.1
Energy(eV) XS(b)
1.00000E-05 18.6373
1.25000E-05 17.4204
1.50000E-05 16.5221
2.00000E-05 15.2611
2.75000E-05 14.0613
3.50000E-05 13.2717
4.25000E-05 12.7017
5.00000E-05 12.2653
6.25000E-05 11.7211
7.50000E-05 11.3193
0.000100000 10.7554
0.000125000 10.3706
0.000150000 10.0865
0.000200000 9.68774
0.000275000 9.30834
0.000350000 9.05864
0.000425000 8.87838
0.000500000 8.74038
0.000625000 8.56828
0.000750000 8.44124
0.00100000 8.26291
0.00125000 8.14122
0.00150000 8.05138
0.00200000 7.92529
0.00275000 7.80531
0.00350000 7.72634
0.00425000 7.66934
0.00500000 7.62570
0.00625000 7.57127
0.00750000 7.53109
0.0100000 7.47470
0.0125000 7.43621
0.0150000 7.40780
0.0200000 7.36791
0.0253000 7.33931
0.0314750 7.31559
0.0376500 7.29797
0.0500000 7.27310
0.0625000 7.25586
0.0750000 7.24313
0.100000 7.22523
0.125000 7.21301
0.150000 7.20396
0.200000 7.19124
0.275000 7.17906
0.350000 7.17099
0.500000 7.16057
0.750000 7.15053
1.00000 7.14430
1.50000 7.13645
2.00000 7.13129
2.75000 7.12575
3.50000 7.12151
5.00000 7.11485
7.50000 7.10607
10.0000 7.09853
15.0000 7.08494
20.0000 7.07228
27.5000 7.05412
35.0000 7.03652
50.0000 7.00234
75.0000 6.94740
100.000 6.89434
150.000 6.79283
200.000 6.69656
275.000 6.56039
350.000 6.43245
500.000 6.19550
750.000 5.83585
1000.00 5.49227
1250.00 5.13561
1500.00 4.73128
1750.00 4.22445
1875.00 3.90233
1906.25 3.81137
1937.50 3.71560
1953.13 3.66601
1968.75 3.61583
1976.56 3.59111
1984.38 3.56783
1992.19 3.54985
1996.09 3.54756
1998.05 3.55104
2000.00 3.56116
2002.46 3.59551
2003.69 3.63383
2004.92 3.70674
2005.54 3.76918
2006.15 3.86491
2006.77 4.02144
2007.38 4.30183
2007.69 4.53352
2008.00 4.87826
2008.30 5.42704
2008.61 6.37016
2008.92 8.21059
2009.07 9.86216
2009.23 12.5172
2009.38 17.2381
2009.53 26.5930
2009.61 35.1367
2009.69 48.9216
2009.76 72.3640
2009.84 112.436
2009.92 177.928
2010.00 220.730
2010.08 177.028
2010.16 111.717
2010.24 69.9910
2010.32 46.6725
2010.41 33.2485
2010.49 25.0506
2010.57 19.7518
2010.65 16.1564
2010.81 11.7600
2010.97 9.29172
2011.13 7.77493
2011.46 6.09011
2011.78 5.22663
2012.11 4.72645
2012.43 4.41107
2012.75 4.19997
2013.40 3.94185
2014.05 3.79630
2014.70 3.70556
2015.34 3.64503
2016.64 3.57068
2017.93 3.52754
2020.52 3.47929
2023.12 3.45150
2025.71 3.43186
2030.89 3.40231
2041.25 3.35521
2051.61 3.31181
2072.33 3.22532
2093.06 3.13590
2175.95 2.73195
2258.84 2.22976
2341.73 1.59282
2383.18 1.21372
2424.62 0.798166
2466.07 0.376587
2486.79 0.192729
2497.16 0.119073
2502.34 0.0893505
2507.52 0.0657056
2512.70 0.0493714
2517.88 0.0418357
2523.06 0.0448738
2528.24 0.0606145
2533.42 0.0916364
2538.60 0.141055
2543.78 0.212662
2548.96 0.311077
2554.14 0.442042
2559.32 0.612597
2569.69 1.10981
2580.05 1.90419
2590.41 3.16091
2600.77 5.16090
2611.13 8.40412
2621.49 13.8390
2631.85 23.4014
2642.22 41.4562
2647.40 56.6184
2652.58 79.1257
2657.76 113.789
2662.94 169.359
2668.12 261.896
2673.30 418.070
2679.65 724.750
2686.00 976.923
2692.35 839.616
2698.70 562.919
2704.24 390.354
2709.78 281.326
2715.31 211.985
2720.85 166.171
2731.93 111.954
2743.00 82.4160
2754.07 64.4876
2765.15 52.7156
2787.30 38.5348
2809.45 30.4981
2831.60 25.4156
2853.75 21.9480
2875.89 19.4474
2920.19 16.1045
2964.49 13.9843
3008.79 12.5236
3053.09 11.4559
3141.69 9.99391
3230.28 9.02937
3318.88 8.33338
3407.48 7.79639
3584.67 6.98680
3673.27 6.65680
3761.86 6.35473
3850.46 6.07369
3894.76 5.94348
3939.06 5.82865
3961.21 5.78341
3983.36 5.75474
4005.51 5.75784
4027.65 5.82910
4038.73 5.91707
4049.80 6.07327
4060.88 6.35605
4071.95 6.90150
4077.49 7.37109
4083.03 8.09189
4088.56 9.26924
4094.10 11.3696
4096.87 13.0929
4099.64 15.6503
4102.41 19.6732
4105.18 26.5182
4107.95 39.5628
4109.33 50.9949
4110.71 69.0717
4112.10 99.9567
4113.48 158.324
4114.17 208.380
4114.87 284.488
4115.56 404.139
4116.25 593.524
4117.13 947.486
4118.00 1183.43
4118.88 944.721
4119.76 589.815
4120.76 342.526
4121.76 214.807
4122.75 145.421
4123.75 104.720
4124.75 79.1292
4125.74 62.1411
4127.74 41.7925
4129.73 30.5872
4131.73 23.7935
4135.72 16.3303
4139.71 12.5411
4143.69 10.3553
4147.68 8.97824
4151.67 8.05240
4159.65 6.91640
4167.63 6.26371
4175.61 5.84649
4183.58 5.55738
4199.54 5.17690
4215.49 4.92577
4231.45 4.73438
4247.41 4.57284
4279.32 4.28666
4311.23 4.00923
4375.05 3.38651
4438.87 2.55469
4470.78 2.00568
4502.70 1.33420
4534.61 0.558944
4550.56 0.208790
4554.55 0.143425
4558.54 0.0947958
4562.53 0.0692786
4566.52 0.0755183
4568.51 0.0940986
4570.51 0.125369
4572.50 0.171568
4574.50 0.235261
4578.49 0.428264
4582.47 0.737281
4586.46 1.21008
4590.45 1.91742
4594.44 2.96670
4598.43 4.52494
4602.42 6.86271
4606.41 10.4312
4610.40 16.0202
4614.39 25.0857
4618.37 40.4781
4622.36 68.1480
4626.35 121.161
4628.35 165.014
4630.34 226.860
4634.17 405.589
4638.00 562.888
4641.83 497.223
4645.66 341.651
4648.43 255.774
4651.20 196.065
4653.97 154.873
4656.73 125.891
4662.27 89.2982
4667.81 68.0677
4673.34 54.6286
4678.88 45.5382
4689.95 34.2571
4701.03 27.6751
4712.10 23.4284
4734.25 18.3435
4756.39 15.4405
4778.54 13.5757
4822.83 11.3251
4867.12 10.0118
4911.42 9.14575
4933.56 8.81444
4955.71 8.53393
4977.85 8.30234
4988.93 8.21048
5000.00 8.14814
5004.80 8.13836
5009.59 8.14835
5014.39 8.19394
5019.19 8.31219
5021.59 8.42547
5023.98 8.60777
5026.38 8.91584
5028.78 9.47962
5029.98 9.94970
5031.18 10.6543
5032.38 11.7757
5033.58 13.7131
5034.78 17.4838
5035.38 20.8675
5035.97 26.3357
5036.57 36.0130
5036.87 43.8642
5037.17 55.2970
5037.47 72.8405
5037.77 101.136
5038.07 149.253
5038.37 232.635
5038.69 367.504
5039.00 457.268
5039.32 366.660
5039.63 231.835
5039.82 172.610
5040.02 131.201
5040.41 82.0929
5040.80 56.4110
5041.19 41.7968
5041.58 32.7676
5041.97 26.8657
5042.74 19.8905
5043.52 16.0967
5044.30 13.8158
5045.86 11.3319
5047.42 10.0779
5048.97 9.35682
5050.53 8.90242
5052.09 8.59620
5055.20 8.21781
5058.32 7.99719
5061.43 7.85336
5064.55 7.75141
5070.78 7.61264
5077.01 7.51750
5083.24 7.44368
5089.46 7.38172
5101.92 7.27718
5114.38 7.18687
5139.30 7.02808
5164.22 6.88629
5189.13 6.75571
5238.97 6.51833
5338.64 6.10502
5438.31 5.73816
5637.65 5.04969
5836.99 4.32106
6036.33 3.44210
6136.00 2.90356
6235.67 2.26990
6335.34 1.52234
6435.01 0.686327
6484.84 0.299337
6509.76 0.151210
6522.22 0.0992321
6528.45 0.0809046
6534.68 0.0687552
6540.91 0.0637523
6547.14 0.0670328
6553.37 0.0799408
6559.60 0.104080
6565.83 0.141414
6572.06 0.194367
6578.28 0.266077
6584.51 0.360759
6596.97 0.646763
6603.20 0.864590
6609.43 1.17386
6615.66 1.67008
6618.78 2.07226
6621.89 2.71030
6625.00 3.90628
6626.56 4.99493
6628.12 6.84453
6629.68 10.4481
6630.46 13.7216
6631.23 19.1198
6632.01 28.9951
6632.40 37.2884
6632.79 49.8585
6633.18 70.1413
6633.57 105.175
6633.96 171.087
6634.35 302.220
6634.67 483.096
6635.00 603.497
6635.33 483.336
6635.65 302.867
6635.92 203.789
6636.19 142.097
6636.46 103.338
6636.72 78.0873
6637.26 48.9270
6637.79 33.6518
6638.32 24.7640
6638.86 19.1751
6639.93 12.8529
6640.99 9.57275
6642.06 7.68120
6644.20 5.74455
6646.33 4.88368
6648.47 4.48512
6652.74 4.29342
6657.01 4.47017
6661.28 4.83472
6669.82 5.92942
6686.90 9.44667
6703.98 15.4027
6721.06 25.6119
6738.14 43.8148
6755.22 77.8106
6772.30 142.913
6790.65 266.495
6809.00 383.344
6827.35 349.446
6845.70 247.166
6861.20 180.624
6876.69 136.361
6892.18 107.056
6907.68 87.0503
6938.67 62.4893
6969.65 48.5390
7000.64 39.7870
7031.63 33.8786
7093.61 26.5254
7155.58 22.1969
7217.56 19.3733
7279.53 17.3960
7341.51 15.9376
7465.46 13.9329
7589.41 12.6183
7713.37 11.6855
7837.32 10.9845
8085.22 9.98168
8333.13 9.26097
8457.08 8.94953
8581.03 8.64731
8643.01 8.49728
8674.00 8.42528
8704.98 8.36157
8735.97 8.32408
8751.47 8.33228
8766.96 8.38678
8774.71 8.44944
8782.45 8.55790
8790.20 8.75029
8797.95 9.11391
8801.82 9.42156
8805.69 9.88635
8809.57 10.6302
8813.44 11.9188
8817.32 14.4293
8819.25 16.6777
8821.19 20.3091
8823.13 26.7084
8825.06 39.4196
8826.03 50.9115
8827.00 69.3173
8827.97 100.359
8828.94 153.847
8829.97 241.463
8831.00 299.613
8832.03 240.763
8833.07 153.067
8834.18 93.9019
8835.29 62.2770
8836.40 44.6672
8837.52 34.1634
8838.63 27.4827
8839.74 23.0101
8841.96 17.6079
8844.19 14.6083
8846.41 12.7784
8850.86 10.7534
8855.31 9.71393
8859.76 9.10576
8864.21 8.71523
8868.66 8.44598
8877.56 8.09882
8886.45 7.87931
8895.35 7.72012
8904.25 7.59186
8922.05 7.37598
8939.84 7.17409
8975.43 6.71912
9011.03 6.06915
9028.82 5.59680
9046.62 4.94450
9055.52 4.51398
9064.41 3.98134
9073.31 3.30905
9082.21 2.44765
9091.11 1.36100
9095.56 0.767144
9097.78 0.491003
9100.01 0.266835
9102.23 0.154828
9103.34 0.173794
9104.45 0.271380
9105.57 0.480999
9106.68 0.850445
9107.79 1.45093
9108.90 2.38948
9110.02 3.83246
9111.13 6.03770
9112.24 9.42874
9113.35 14.7120
9114.46 23.1035
9115.58 36.7427
9116.69 59.3844
9117.80 97.1089
9119.40 189.418
9121.00 283.573
9121.80 290.333
9122.60 267.512
9124.20 194.689
9125.53 146.021
9126.85 112.777
9128.18 90.2947
9129.51 74.7099
9132.16 55.2292
9134.81 43.9573
9137.46 36.7815
9140.12 31.8845
9145.42 25.7137
9150.73 22.0340
9156.03 19.6128
9161.34 17.9067
9166.64 16.6433
9177.25 14.9017
9187.86 13.7605
9198.47 12.9553
9209.08 12.3568
9230.31 11.5252
9251.53 10.9730
9293.97 10.2795
9336.41 9.85578
9378.85 9.56523
9463.74 9.18298
9548.62 8.93424
9591.06 8.83813
9633.50 8.75580
9675.95 8.68675
9697.17 8.65864
9718.39 8.63801
9729.00 8.63271
9739.61 8.63355
9750.22 8.64556
9760.83 8.68061
9766.14 8.71554
9771.44 8.77298
9776.75 8.87205
9782.05 9.05759
9784.70 9.21531
9787.36 9.45612
9790.01 9.84882
9792.66 10.5501
9793.99 11.1277
9795.31 11.9879
9796.64 13.3495
9797.97 15.6895
9799.29 20.2209
9799.96 24.2579
9800.62 30.7555
9801.28 42.1376
9801.94 64.5498
9802.28 84.6463
9802.61 116.452
9802.94 169.547
9803.27 259.245
9803.64 409.930
9804.00 510.498
9804.37 410.101
9804.73 259.489
9805.11 159.691
9805.49 105.375
9805.88 74.6004
9806.26 56.1046
9806.64 44.2310
9807.02 36.2519
9807.78 26.5487
9808.55 21.1378
9809.31 17.8275
9810.83 14.1668
9812.36 12.2957
9813.88 11.2148
9815.41 10.5336
9816.94 10.0773
9819.99 9.52169
9823.04 9.20850
9826.09 9.01400
9829.14 8.88442
9835.24 8.72645
9841.34 8.63589
9847.45 8.57780
9853.55 8.53730
9865.75 8.48352
9877.96 8.44787
9890.16 8.42100
9902.37 8.39898
9926.77 8.36274
9951.18 8.33206
10000.0 8.27883
10060.5 8.22092
10121.0 8.16846
10241.9 8.07474
10483.8 7.91770
10725.7 7.78808
10967.6 7.67786
11209.5 7.58329
11330.4 7.54178
11451.4 7.50512
11572.3 7.47621
11632.8 7.46718
11693.2 7.46538
11753.7 7.47849
11784.0 7.49644
11814.2 7.52970
11844.4 7.59327
11859.6 7.64734
11874.7 7.73051
11889.8 7.87203
11897.3 7.98781
11904.9 8.16787
11912.5 8.49200
11916.2 8.77794
11920.0 9.25634
11923.8 10.1895
11925.7 11.0544
11927.6 12.5320
11929.5 15.4053
11930.4 18.0166
11931.4 22.2482
11932.3 29.9626
11932.8 36.2952
11933.3 45.7387
11933.7 60.5887
11934.2 85.4708
11934.7 130.116
11935.1 213.361
11935.6 337.131
11936.0 416.824
11936.4 334.081
11936.9 213.332
11937.4 128.873
11937.8 84.8533
11938.3 59.9079
11938.8 45.3953
11939.3 35.9970
11939.7 29.8476
11940.7 22.4130
11941.6 18.2603
11942.6 15.7724
11944.4 13.0535
11946.3 11.7164
11948.2 11.0011
11952.0 10.3875
11955.8 10.2781
11959.6 10.4374
11967.1 11.3924
11974.7 13.5619
11978.5 15.5324
11982.3 18.6900
11986.1 24.1584
11989.8 34.6114
11991.7 43.6861
11993.6 57.6483
11995.5 79.9381
11997.4 115.864
11999.7 181.006
12002.0 224.315
12004.3 180.515
12006.6 115.314
12008.7 77.1205
12010.7 54.4787
12012.7 40.7449
12014.8 32.0311
12018.9 22.2090
12022.9 17.2025
12027.0 14.3255
12031.1 12.5370
12039.3 10.5211
12047.5 9.47488
12055.6 8.86376
12063.8 8.47603
12072.0 8.21480
12088.3 7.89417
12104.6 7.71179
12121.0 7.59748
12137.3 7.52057
12170.0 7.42510
12202.7 7.36864
12235.3 7.33099
12268.0 7.30357
12333.4 7.26454
12398.7 7.23609
12529.4 7.19249
12660.1 7.15682
12790.8 7.12577
12856.2 7.11260
12888.8 7.10742
12921.5 7.10443
12954.2 7.10694
12970.5 7.11339
12986.9 7.12850
12995.0 7.14271
13003.2 7.16563
13011.4 7.20480
13019.5 7.27798
13023.6 7.34054
13027.7 7.43636
13031.8 7.59417
13035.9 7.87866
13037.9 8.11678
13040.0 8.47403
13042.0 9.04777
13044.0 10.0543
13046.1 12.0641
13047.1 13.9170
13048.1 17.0087
13049.1 22.7241
13049.6 27.5797
13050.2 35.0129
13050.7 47.1280
13051.2 68.4940
13051.7 109.844
13051.9 145.773
13052.2 195.511
13052.6 311.162
13053.0 386.279
13053.4 308.570
13053.8 196.055
13054.1 133.754
13054.5 94.9897
13054.8 70.6387
13055.1 54.7728
13055.8 36.4412
13056.5 26.8272
13057.1 21.2233
13057.8 17.6904
13059.1 13.6911
13060.4 11.5736
13061.7 10.3299
13063.0 9.53825
13064.4 9.00692
13067.0 8.35019
13069.6 7.97946
13072.3 7.74817
13074.9 7.59512
13080.2 7.41004
13085.4 7.30653
13090.7 7.24254
13096.0 7.20002
13106.5 7.14830
13117.1 7.11867
13138.1 7.08642
13159.2 7.06882
13180.3 7.05713
13222.5 7.04103
13264.6 7.02897
13306.8 7.01863
13391.1 7.00029
13559.7 6.96804
13728.4 6.94033
13897.0 6.92047
13981.3 6.91731
14065.6 6.92528
14107.8 6.93776
14150.0 6.96135
14192.1 7.00564
14234.3 7.09318
14255.4 7.16953
14276.4 7.28766
14297.5 7.48193
14318.6 7.83051
14329.1 8.11736
14339.7 8.54368
14350.2 9.21467
14360.8 10.3559
14371.3 12.5222
14376.6 14.4116
14381.8 17.3807
14387.1 22.3986
14392.4 31.7326
14395.0 39.6165
14397.6 51.3508
14400.3 69.3731
14402.9 97.1465
14406.5 152.099
14410.0 189.135
14413.6 152.758
14417.1 98.0458
14419.5 72.6966
14421.8 55.4623
14426.5 35.5404
14431.2 25.4218
14435.8 19.7640
14440.5 16.3099
14445.2 14.0683
14454.6 11.4346
14464.0 10.0115
14473.3 9.15757
14492.1 8.22754
14510.8 7.75708
14529.5 7.48557
14548.3 7.31395
14567.0 7.19802
14604.5 7.05433
14642.0 6.97044
14679.4 6.91583
14716.9 6.87723
14791.8 6.82491
14866.8 6.78843
14941.7 6.75615
14979.2 6.73561
14998.0 6.72565
15002.6 6.73147
15007.3 6.76777
15009.7 6.83415
15012.0 7.04786
15013.2 7.35666
15013.8 7.66632
15014.3 8.20650
15014.9 9.30580
15015.2 10.2929
15015.5 11.9024
15015.8 14.8925
15016.1 20.7385
15016.3 26.2737
15016.4 34.5686
15016.5 49.6275
15016.7 75.7240
15016.8 117.455
15017.0 148.574
15017.2 120.771
15017.3 79.5860
15017.4 56.2270
15017.6 41.2458
15017.7 31.8368
15017.8 26.0936
15018.1 18.7967
15018.3 15.0791
15018.6 12.7972
15018.8 11.4000
15019.4 9.74757
15019.9 8.86365
15020.4 8.33384
15021.4 7.75318
15022.4 7.45533
15023.4 7.28048
15025.5 7.09094
15029.6 6.93607
15033.6 6.87238
15041.8 6.81750
15049.9 6.79293
15066.2 6.76907
15082.5 6.75627
15115.1 6.74057
15147.7 6.72956
15212.9 6.71231
15278.1 6.69772
15408.6 6.67194
15539.0 6.64849
15799.8 6.60530
16060.6 6.56564
16321.4 6.53080
16451.9 6.51728
16582.3 6.51014
16647.5 6.51146
16712.7 6.51917
16777.9 6.53885
16843.1 6.58364
16875.7 6.62512
16908.3 6.69125
16940.9 6.80292
16973.5 7.00859
16989.8 7.18163
17006.1 7.44363
17022.4 7.86654
17038.7 8.61210
17046.9 9.21789
17055.0 10.1095
17063.2 11.4973
17071.3 13.8257
17079.5 18.1650
17083.5 21.8879
17087.6 27.6214
17091.7 37.1016
17095.8 54.0694
17099.8 87.8625
17101.9 117.286
17103.9 160.260
17107.0 252.237
17110.0 313.367
17113.1 252.327
17116.1 160.468
17118.0 120.001
17119.9 91.6239
17123.7 57.8745
17127.4 40.1746
17131.2 30.0853
17135.0 23.8431
17138.8 19.7592
17146.3 14.9228
17153.9 12.2935
17161.4 10.7114
17176.5 8.98681
17191.6 8.11735
17206.7 7.61828
17221.8 7.30514
17236.9 7.09547
17267.1 6.83985
17297.3 6.69468
17327.5 6.60334
17357.7 6.54135
17418.1 6.46299
17478.5 6.41490
17538.9 6.38132
17599.3 6.35555
17720.1 6.31589
17840.9 6.28383
18082.5 6.22794
18324.1 6.17473
18565.7 6.12029
18807.3 6.06336
18867.7 6.04996
18928.1 6.04146
18958.3 6.04539
18973.4 6.05436
18988.5 6.07551
19003.6 6.12837
19011.1 6.18496
19018.7 6.29182
19022.4 6.38359
19026.2 6.52438
19030.0 6.75620
19033.8 7.17212
19035.7 7.51675
19037.5 8.03174
19039.4 8.84841
19041.3 10.2423
19043.2 12.9392
19044.1 15.3125
19045.1 19.0902
19046.0 25.6856
19047.0 38.2194
19047.4 49.1027
19047.9 65.8454
19048.4 92.5597
19048.9 135.581
19049.4 214.885
19050.0 267.198
19050.6 214.993
19051.2 137.547
19051.6 94.4212
19052.1 67.9645
19052.6 50.8695
19053.0 39.9183
19053.9 27.0318
19054.9 20.2904
19055.8 16.2904
19056.7 13.7611
19058.6 10.8823
19060.4 9.35433
19062.3 8.45591
19064.1 7.87991
19066.0 7.48825
19069.7 7.00314
19073.4 6.72543
19077.1 6.55108
19080.8 6.43430
19088.2 6.29077
19095.6 6.20871
19103.1 6.15669
19110.5 6.12119
19125.3 6.07616
19140.1 6.04869
19169.8 6.01568
19199.4 5.99486
19229.1 5.97908
19288.4 5.95366
19525.6 5.86649
19644.2 5.81919
19762.8 5.76416
19881.4 5.69310
19940.7 5.64482
20000.0 5.57749
20044.8 5.49935
20067.2 5.44189
20089.6 5.36035
20100.8 5.30434
20112.0 5.23170
20123.2 5.13291
20134.4 4.98959
20140.0 4.89014
20145.6 4.76085
20151.2 4.58561
20156.8 4.33435
20159.6 4.16290
20162.4 3.94420
20165.2 3.65618
20168.0 3.26176
20170.8 2.69703
20172.2 2.32124
20173.6 1.87036
20175.0 1.37622
20176.4 1.11328
20177.1 1.48650
20177.5 2.05849
20177.8 3.16539
20178.2 5.26271
20178.5 9.27179
20178.7 12.6404
20178.9 17.1098
20179.0 23.7771
20179.2 32.5757
20179.4 46.9194
20179.6 65.7030
20180.0 101.918
20180.2 106.306
20180.4 99.5169
20180.8 75.0458
20181.1 58.4458
20181.5 46.6479
20181.8 38.4234
20182.1 32.7332
20182.7 25.1706
20183.4 20.7385
20184.0 17.8140
20184.6 15.8194
20185.9 13.2586
20187.2 11.6927
20188.4 10.6581
20189.7 9.91688
20190.9 9.36872
20193.5 8.60466
20196.0 8.10089
20198.5 7.74429
20201.1 7.47879
20206.1 7.10998
20211.2 6.86591
20216.2 6.69232
20221.3 6.56238
20231.4 6.38025
20241.6 6.25839
20251.7 6.17057
20261.8 6.10390
20282.0 6.00837
20302.3 5.94215
20342.8 5.85320
20383.3 5.79295
20423.7 5.74682
20504.7 5.67519
20585.7 5.61690
20666.7 5.56661
20707.2 5.54624
20747.6 5.53732
20767.9 5.54818
20778.0 5.56539
20788.1 5.60185
20798.2 5.68566
20803.3 5.77051
20808.4 5.92386
20810.9 6.05077
20813.4 6.24037
20816.0 6.54098
20818.5 7.05804
20821.0 8.05834
20822.3 8.95385
20823.5 10.3826
20824.8 12.9032
20826.1 17.8161
20826.7 22.2793
20827.3 29.2491
20828.0 40.7866
20828.6 60.1997
20829.3 92.8729
20830.0 114.576
20830.7 92.3614
20831.4 59.7988
20832.0 42.2253
20832.5 31.3140
20833.1 24.3370
20833.6 19.7274
20834.7 14.3254
20835.8 11.4535
20836.9 9.76477
20838.0 8.69369
20840.2 7.46777
20842.4 6.82140
20844.6 6.43995
20846.8 6.19620
20849.0 6.03094
20853.4 5.82692
20857.8 5.71050
20866.6 5.58762
20875.4 5.52570
20884.2 5.48878
20901.9 5.44549
20937.1 5.39861
20972.3 5.36608
21113.2 5.25539
21183.6 5.19922
21254.1 5.14037
21394.9 5.01204
21535.8 4.86564
21606.3 4.78410
21676.7 4.69618
21747.1 4.60158
21817.6 4.50215
21852.8 4.45452
21870.4 4.43435
21888.0 4.42124
21905.6 4.42697
21914.4 4.44770
21923.2 4.49781
21927.6 4.54505
21932.0 4.62038
21936.4 4.74683
21940.8 4.97626
21943.0 5.16567
21945.2 5.44712
21947.4 5.88912
21949.6 6.63742
21951.8 8.04678
21952.9 9.26570
21954.0 11.1647
21955.1 14.3355
21956.2 20.1288
21956.8 24.9236
21957.3 31.9651
21957.9 42.5575
21958.4 58.4927
21959.2 91.1520
21960.0 113.006
21960.8 91.3351
21961.6 58.7253
21962.1 43.4955
21962.6 33.1239
21963.6 21.1944
