Nb-93(n,g) ENDF/B-VII.1
Energy(eV) XS(b)
1.00000E-05 57.6221
1.25350E-05 51.4673
1.50700E-05 46.9398
2.00000E-05 40.7464
2.27100E-05 38.2384
2.78700E-05 34.5180
3.42100E-05 31.1562
4.20000E-05 28.1193
5.00000E-05 25.7723
5.15500E-05 25.3819
5.74150E-05 24.0509
6.32800E-05 22.9095
7.76800E-05 20.6779
9.53600E-05 18.6635
0.000100000 18.2255
0.000117100 16.8427
0.000143700 15.2048
0.000176400 13.7240
0.000200000 12.8892
0.000216500 12.3886
0.000265800 11.1815
0.000326200 10.0940
0.000400500 9.11043
0.000491600 8.22380
0.000500000 8.15448
0.000525850 7.95171
0.000551700 7.76337
0.000603400 7.42367
0.000740700 6.70115
0.000909300 6.04884
0.00100000 5.76838
0.00111600 5.46081
0.00137000 4.92947
0.00168200 4.44968
0.00200000 4.08135
0.00206400 4.01771
0.00229900 3.80730
0.00253400 3.62690
0.00311100 3.27421
0.00381900 2.95608
0.00468700 2.66929
0.00500000 2.58470
0.00575400 2.41008
0.00706300 2.17629
0.00867000 1.96528
0.0100000 1.83064
0.0106400 1.77506
0.0130600 1.60323
0.0160400 1.44772
0.0196900 1.30776
0.0200000 1.29767
0.0210400 1.26547
0.0220800 1.23558
0.0241600 1.18171
0.0253000 1.15504
0.0296600 1.06767
0.0364100 0.964796
0.0447000 0.871922
0.0500000 0.825083
0.0548700 0.788189
0.0673500 0.712647
0.0826700 0.644479
0.100000 0.587149
0.101500 0.582892
0.107275 0.567339
0.113050 0.552998
0.124600 0.527381
0.152900 0.477376
0.187700 0.432173
0.200000 0.419092
0.230400 0.391408
0.282900 0.354577
0.347200 0.321425
0.426200 0.291483
0.500000 0.270194
0.523200 0.264460
0.582700 0.251327
0.642200 0.240080
0.788300 0.218083
0.967700 0.198222
1.00000 0.195221
1.09400 0.187267
1.18800 0.180288
1.45800 0.164118
1.79000 0.149488
2.00000 0.142169
2.19700 0.136297
2.69700 0.124354
3.31100 0.113563
4.06400 0.103813
4.98900 0.0949856
5.00000 0.0948952
5.03513 0.0946083
5.07025 0.0943246
5.14050 0.0937660
5.28100 0.0926834
5.56200 0.0906463
6.12400 0.0870152
7.51700 0.0798120
9.22800 0.0733075
10.0000 0.0709312
11.3300 0.0674636
13.9000 0.0622767
17.0700 0.0576943
20.0000 0.0546437
20.9500 0.0538649
23.3350 0.0522751
25.7200 0.0513644
28.6450 0.0517428
31.5700 0.0579167
32.6264 0.0661490
33.1546 0.0744356
33.6828 0.0894469
34.2109 0.120766
34.4750 0.150976
34.7391 0.203939
35.0032 0.309648
35.1353 0.407078
35.2673 0.569625
35.3994 0.870145
35.4654 1.12547
35.5314 1.51637
35.5974 2.15369
35.6635 3.27768
35.7295 5.45276
35.7625 7.29824
35.7955 9.95416
35.8478 15.9067
35.9000 19.8835
35.9523 15.9238
36.0046 9.97366
36.0475 6.69309
36.0904 4.65405
36.1333 3.37496
36.1762 2.54277
36.2620 1.58235
36.3478 1.07947
36.4336 0.786646
36.5194 0.602230
36.6910 0.392608
36.8625 0.282898
37.0341 0.218579
37.3773 0.150348
37.7205 0.117161
38.0637 0.0989775
38.7500 0.0823676
39.6098 0.0796399
40.0396 0.0848570
40.4695 0.0976259
40.8994 0.127027
41.1143 0.155991
41.3293 0.206642
41.5442 0.306065
41.6517 0.395625
41.7591 0.541109
41.8666 0.799147
41.9741 1.31693
42.0278 1.78967
42.0815 2.55549
42.1353 3.86576
42.1890 6.16394
42.2445 9.83791
42.3000 12.2918
42.3556 9.84699
42.4111 6.17403
42.4514 4.33711
42.4917 3.13003
42.5320 2.33526
42.5723 1.79838
42.6529 1.15460
42.7335 0.804678
42.8142 0.595905
42.8948 0.462137
43.0560 0.307503
43.2172 0.225167
43.3784 0.176259
43.7008 0.123485
44.0233 0.0970593
44.3457 0.0819063
44.9906 0.0659640
45.6354 0.0580748
46.2803 0.0535257
47.5700 0.0486206
50.0000 0.0446204
58.3900 0.0406473
71.6800 0.0391333
79.8350 0.0395136
83.9125 0.0406303
87.9900 0.0444806
89.5450 0.0488932
90.3224 0.0531908
91.0999 0.0608982
91.8774 0.0770195
92.2661 0.0927505
92.6549 0.120811
93.0436 0.178559
93.2380 0.233669
93.4323 0.329309
93.6267 0.517356
93.7239 0.688002
93.8211 0.967995
93.9183 1.47293
93.9669 1.89106
94.0154 2.51493
94.0640 3.49635
94.1126 5.14114
94.1612 8.09293
94.2098 13.6005
94.2549 21.7371
94.3000 27.1639
94.3452 21.7377
94.3903 13.5984
94.4341 8.49710
94.4780 5.59293
94.5218 3.89713
94.5656 2.85118
94.6094 2.16995
94.6533 1.70529
94.7409 1.13388
94.8286 0.811280
94.9162 0.612353
95.0915 0.390675
95.2668 0.276766
95.4421 0.210730
95.7927 0.141232
96.1433 0.107428
96.4939 0.0885713
97.1952 0.0696051
97.8964 0.0610613
98.5976 0.0568940
100.000 0.0546766
101.429 0.0582313
102.144 0.0631975
102.858 0.0727367
103.573 0.0931768
103.930 0.113222
104.287 0.148965
104.644 0.222425
104.823 0.292386
105.002 0.413587
105.180 0.651551
105.270 0.866978
105.359 1.21983
105.448 1.85452
105.493 2.37959
105.537 3.15954
105.582 4.38578
105.627 6.42826
105.671 10.0830
105.716 16.8434
105.758 26.9645
105.800 33.7277
105.842 26.9539
105.884 16.8302
105.917 11.4382
105.950 8.02896
105.983 5.85839
106.016 4.43319
106.082 2.76579
106.149 1.88258
106.215 1.36401
106.281 1.03640
106.413 0.662327
106.545 0.465613
106.678 0.350029
106.942 0.226795
107.207 0.166167
107.471 0.132088
108.000 0.0975011
108.696 0.0784720
109.392 0.0705029
110.784 0.0669367
112.176 0.0718925
113.568 0.0858542
114.264 0.0986371
114.960 0.118666
115.656 0.151993
116.352 0.212944
116.700 0.264246
117.048 0.342401
117.396 0.469959
117.744 0.699278
117.918 0.889666
118.092 1.17616
118.266 1.63616
118.440 2.44394
118.527 3.09896
118.614 4.06211
118.701 5.56056
118.788 8.07473
118.875 12.7647
118.919 16.7886
118.962 23.0121
119.006 33.3052
119.049 51.8563
119.071 67.0461
119.093 88.9700
119.114 121.582
119.136 169.526
119.152 216.667
119.168 270.378
119.200 337.249
119.232 270.302
119.264 169.432
119.290 113.825
119.316 79.1869
119.342 57.2741
119.368 43.0251
119.420 26.4993
119.472 17.8247
119.525 12.7676
119.577 9.57994
119.681 5.95448
119.785 4.05570
119.889 2.94110
119.993 2.23231
120.098 1.75450
120.306 1.16949
120.514 0.839168
120.723 0.634681
120.931 0.499461
121.348 0.337280
121.765 0.247529
122.181 0.192709
122.598 0.156813
123.432 0.114214
124.265 0.0908786
125.099 0.0767345
125.932 0.0675264
127.599 0.0566831
129.266 0.0508111
132.600 0.0450737
136.363 0.0423571
140.125 0.0412028
147.650 0.0408897
155.175 0.0421836
162.700 0.0453922
170.254 0.0527322
174.031 0.0601641
177.808 0.0737907
179.697 0.0853171
181.585 0.102988
183.474 0.132111
185.362 0.185288
186.306 0.230174
187.251 0.298849
188.195 0.411739
189.139 0.616944
189.611 0.789354
190.083 1.05181
190.555 1.48012
191.028 2.25047
191.264 2.89062
191.500 3.85469
191.736 5.40444
191.972 8.12897
192.090 10.3439
192.208 13.6033
192.326 18.6847
192.444 27.2358
192.503 33.8943
192.562 43.2794
192.621 57.1045
192.680 78.5984
192.739 114.412
192.769 141.808
192.798 179.688
192.828 233.609
192.857 312.668
192.887 431.373
192.916 609.600
192.958 975.851
193.000 1220.15
193.042 975.571
193.084 609.281
193.110 447.159
193.137 334.523
193.189 200.827
193.242 131.380
193.294 91.9230
193.346 67.5986
193.399 51.6817
193.504 32.9247
193.609 22.7452
193.714 16.6398
193.924 10.0017
194.133 6.66672
194.343 4.76107
194.553 3.57162
194.763 2.78033
195.183 1.82546
195.603 1.29380
196.022 0.967705
196.442 0.753531
197.282 0.498589
198.121 0.358497
198.961 0.273393
199.800 0.217878
200.000 0.207514
200.686 0.177939
201.371 0.155353
202.742 0.123694
205.485 0.0888950
208.227 0.0712611
210.969 0.0611714
216.454 0.0508437
221.938 0.0462924
227.423 0.0446630
232.907 0.0462781
235.649 0.0502317
237.020 0.0545019
238.392 0.0625037
239.763 0.0797593
240.448 0.0968819
241.134 0.127776
241.477 0.153490
241.819 0.192245
242.162 0.254573
242.505 0.364181
242.848 0.584294
243.019 0.788547
243.191 1.13197
243.362 1.77454
243.448 2.32756
243.533 3.18559
243.619 4.61107
243.705 7.19765
243.748 9.32750
243.790 12.4294
243.833 17.0599
243.876 23.9680
243.938 38.3873
244.000 48.0278
244.062 38.3966
244.124 23.9798
244.191 14.1925
244.259 8.98420
244.326 6.08856
244.393 4.36764
244.460 3.27380
244.528 2.54262
244.662 1.65982
244.797 1.17067
244.931 0.872717
245.200 0.544466
245.418 0.402139
245.636 0.312349
246.072 0.209790
246.508 0.155656
246.944 0.123658
247.816 0.0892841
248.688 0.0721738
249.559 0.0624270
250.431 0.0563466
252.175 0.0494594
253.919 0.0458439
255.663 0.0437098
259.150 0.0414252
266.125 0.0397198
273.100 0.0392653
287.050 0.0397704
294.025 0.0406528
301.000 0.0423243
305.472 0.0443434
309.945 0.0486814
312.181 0.0536550
313.299 0.0581999
314.417 0.0660498
315.535 0.0820042
316.094 0.0973616
316.653 0.124617
317.212 0.180713
317.492 0.234453
317.771 0.328332
318.051 0.515136
318.190 0.687061
318.330 0.973331
318.470 1.50222
318.540 1.95121
318.610 2.63692
318.679 3.75502
318.749 5.72506
318.819 9.53238
318.854 12.7537
318.889 17.3838
318.945 27.8115
319.000 34.7756
319.056 27.8162
319.111 17.3899
319.175 10.0187
319.238 6.22434
319.302 4.17203
319.366 2.97217
319.430 2.22024
319.493 1.72147
319.621 1.12572
319.748 0.798296
319.875 0.600246
320.130 0.383304
320.385 0.273753
320.639 0.211030
321.149 0.145986
321.658 0.115056
322.168 0.0983344
323.186 0.0827873
324.205 0.0775125
325.224 0.0770893
327.262 0.0860059
328.281 0.0961267
329.300 0.112554
330.318 0.140254
331.337 0.191154
331.847 0.234073
332.356 0.299504
332.866 0.406408
333.375 0.598895
333.630 0.759039
333.884 1.00034
334.139 1.38864
334.394 2.07275
334.521 2.62958
334.649 3.45030
334.776 4.73374
334.903 6.89877
335.031 10.9793
335.094 14.5164
335.158 20.0345
335.222 29.3106
335.285 46.4127
335.317 60.7312
335.349 81.8903
335.381 114.076
335.413 163.110
335.435 208.882
335.456 260.948
335.500 326.164
335.544 260.909
335.587 163.064
335.614 120.466
335.641 90.6263
335.694 54.9014
335.748 36.1325
335.801 25.3723
335.855 18.7199
335.908 14.3503
336.015 9.17794
336.122 6.36210
336.228 4.66967
336.442 2.82606
336.656 1.89819
336.869 1.36759
337.083 1.03609
337.297 0.815327
337.724 0.548861
338.151 0.400430
338.578 0.309433
339.006 0.249707
339.860 0.178749
340.715 0.139964
341.569 0.116612
342.424 0.101593
344.133 0.0844496
345.842 0.0759148
349.260 0.0698694
352.678 0.0710638
356.096 0.0776507
359.514 0.0928441
361.223 0.112469
361.651 0.124337
362.078 0.150106
362.292 0.179948
362.398 0.206756
362.505 0.251291
362.612 0.334572
362.665 0.406869
362.719 0.520584
362.772 0.713874
362.826 1.07811
362.852 1.38983
362.879 1.86311
362.906 2.60602
362.932 3.77992
362.966 5.97308
363.000 7.43567
363.034 5.97542
363.068 3.78420
363.097 2.53007
363.126 1.77134
363.155 1.30447
363.184 1.00526
363.242 0.665367
363.300 0.491265
363.358 0.391707
363.416 0.330567
363.532 0.264371
363.764 0.220762
363.996 0.223753
364.228 0.263040
364.345 0.305771
364.461 0.380639
364.577 0.524680
364.635 0.651100
364.693 0.850159
364.751 1.18900
364.809 1.82373
364.838 2.36351
364.867 3.17742
364.896 4.44330
364.925 6.42167
364.962 10.1873
365.000 12.6961
365.038 10.1760
365.075 6.41281
365.110 4.14719
365.145 2.81873
365.179 2.02455
365.214 1.52737
365.283 0.972163
365.352 0.691778
365.421 0.532065
365.490 0.433387
365.628 0.323489
365.767 0.267569
365.905 0.235893
366.182 0.204588
366.735 0.187236
367.288 0.188959
369.500 0.252256
370.596 0.313138
371.691 0.407585
372.787 0.563304
373.882 0.845883
374.430 1.08244
374.978 1.44112
375.525 2.02322
376.073 3.06096
376.347 3.91566
376.621 5.19154
376.895 7.21781
377.169 10.7180
377.306 13.5131
377.442 17.5565
377.579 23.7208
377.716 33.7526
377.785 41.3071
377.853 51.6546
377.922 66.3152
377.990 87.9114
378.059 121.419
378.127 176.312
378.196 272.062
378.264 443.699
378.332 710.968
378.400 889.532
378.468 710.767
378.536 443.482
378.591 298.965
378.645 208.495
378.700 151.186
378.754 113.735
378.863 70.2127
378.972 47.2921
379.082 33.8998
379.191 25.4447
379.409 15.8161
379.627 10.7625
379.845 7.79298
380.063 5.90330
380.281 4.62818
380.718 3.06704
381.154 2.18524
381.591 1.63904
382.027 1.27776
382.900 0.844782
383.772 0.605532
384.645 0.460059
385.518 0.365673
387.263 0.257962
389.008 0.213307
389.881 0.216531
390.754 0.266299
391.190 0.347177
391.408 0.427943
391.627 0.570684
391.845 0.854747
391.954 1.11388
392.063 1.53974
392.172 2.30974
392.227 2.94893
392.281 3.90180
392.336 5.40522
392.390 7.92351
392.445 12.4482
392.499 20.9029
392.550 33.3782
392.600 41.6702
392.651 33.3548
392.701 20.8852
392.761 11.8968
392.820 7.34421
392.880 4.91082
392.939 3.50127
392.998 2.62088
393.058 2.03914
393.177 1.34663
393.296 0.966937
393.415 0.737372
393.653 0.485349
393.891 0.357135
394.128 0.282800
394.604 0.203596
395.080 0.163646
395.556 0.140095
396.507 0.113719
398.410 0.0895465
400.313 0.0773926
404.120 0.0642470
407.926 0.0570091
415.538 0.0493551
423.151 0.0456366
430.763 0.0437803
438.375 0.0432665
445.988 0.0449792
449.794 0.0485202
451.697 0.0524875
453.600 0.0604296
454.427 0.0665500
455.254 0.0759409
456.081 0.0914030
456.908 0.119520
457.321 0.143128
457.735 0.179038
458.148 0.237544
458.562 0.342448
458.769 0.429379
458.975 0.559823
459.182 0.768562
459.389 1.13329
459.595 1.85861
459.699 2.52465
459.802 3.63045
459.906 5.66533
459.957 7.38512
460.009 9.99807
460.061 14.2328
460.112 21.6234
460.164 35.7000
460.190 47.4351
460.216 64.1028
460.237 82.0937
460.258 102.545
460.300 128.071
460.342 102.438
460.385 64.0149
460.424 40.7602
460.463 27.1818
460.502 19.0917
460.541 14.0375
460.620 8.41189
460.698 5.56893
460.776 3.94916
460.855 2.94622
461.011 1.82268
461.168 1.24223
461.325 0.904813
461.481 0.691450
461.638 0.548249
461.951 0.373854
462.264 0.275819
462.578 0.215309
462.891 0.175373
463.518 0.127580
464.144 0.101176
464.771 0.0850703
465.397 0.0745319
466.650 0.0620358
467.904 0.0551993
470.410 0.0483830
472.916 0.0452666
475.422 0.0436539
480.435 0.0424271
485.448 0.0428620
487.954 0.0439045
490.460 0.0461131
492.967 0.0511409
494.220 0.0562490
495.473 0.0656155
496.099 0.0735162
496.726 0.0855703
497.353 0.105272
497.979 0.140734
498.292 0.170210
498.606 0.214596
498.919 0.285921
499.232 0.411280
499.389 0.513045
499.546 0.662676
499.702 0.895790
499.859 1.28704
500.016 2.01833
500.094 2.64621
500.172 3.61850
500.251 5.22929
500.329 8.13992
500.368 10.5267
500.407 13.9880
500.446 19.1442
500.485 26.7744
500.543 42.8134
500.600 53.5060
500.657 42.7880
500.715 26.7568
500.770 16.8192
500.824 11.1124
500.879 7.75720
500.934 5.68009
500.989 4.31983
501.043 3.38941
501.153 2.24319
501.263 1.59378
501.372 1.19292
501.591 0.745189
501.810 0.514736
502.029 0.380937
502.248 0.296489
502.467 0.239842
502.906 0.170896
503.344 0.132163
503.782 0.108260
504.220 0.0924837
505.097 0.0735993
505.973 0.0631582
507.725 0.0526025
509.478 0.0476336
511.231 0.0449012
514.736 0.0421486
521.747 0.0401517
528.757 0.0394610
542.779 0.0390586
556.800 0.0391021
577.964 0.0397996
583.254 0.0403248
588.545 0.0414747
591.191 0.0427571
593.836 0.0457008
595.159 0.0491409
596.482 0.0575442
597.143 0.0680312
597.804 0.0952089
598.135 0.130220
598.300 0.163389
598.466 0.220750
598.631 0.333609
598.714 0.436288
598.796 0.605209
598.879 0.912218
598.920 1.16805
598.962 1.55257
599.003 2.16559
599.044 3.20646
599.086 5.11549
599.127 8.78275
599.164 14.0245
599.200 17.5046
599.237 14.0104
599.273 8.77264
599.310 5.43805
599.346 3.56284
599.382 2.47845
599.419 1.81420
599.455 1.38397
599.491 1.09164
599.564 0.733789
599.636 0.532793
599.709 0.409375
599.854 0.272792
599.999 0.203383
600.144 0.163866
600.435 0.124168
600.725 0.107461
601.015 0.101277
601.596 0.107063
602.177 0.138736
602.467 0.173385
602.757 0.236709
602.903 0.289224
603.048 0.367660
603.193 0.491924
603.338 0.705228
603.483 1.11748
603.556 1.48426
603.628 2.07234
603.701 3.10037
603.774 5.11466
603.810 6.90804
603.846 9.73962
603.883 14.4175
603.919 22.2448
603.959 35.5899
604.000 44.4609
604.041 35.5570
604.081 22.2474
604.108 16.1815
604.134 12.0042
604.186 7.14084
604.239 4.65264
604.291 3.25079
604.344 2.39433
604.396 1.83647
604.501 1.18152
604.607 0.827706
604.712 0.616099
604.922 0.386572
605.132 0.271459
605.342 0.205746
605.762 0.137394
606.182 0.104413
606.602 0.0860230
607.442 0.0673374
608.282 0.0585901
609.123 0.0539187
610.803 0.0498499
612.483 0.0495351
614.164 0.0539434
615.004 0.0612645
615.844 0.0822467
616.264 0.110600
616.474 0.138051
616.684 0.186336
616.894 0.283341
616.999 0.373321
617.104 0.524596
617.209 0.807619
617.262 1.05118
617.314 1.42907
617.367 2.05684
617.419 3.19590
617.446 4.13457
617.472 5.49945
617.498 7.54523
617.524 10.5851
617.562 16.9056
617.600 21.1170
617.638 16.8868
617.676 10.5699
617.721 5.97112
617.766 3.66628
617.812 2.44078
617.857 1.73253
617.902 1.29221
617.947 1.00182
618.038 0.656714
618.128 0.468083
618.219 0.354439
618.399 0.230339
618.580 0.167726
618.761 0.131865
619.123 0.0944724
619.846 0.0663047
620.569 0.0560364
622.016 0.0485539
623.463 0.0459875
626.356 0.0445658
629.249 0.0449821
632.142 0.0470816
633.589 0.0493828
635.036 0.0536582
636.482 0.0628244
637.206 0.0719258
637.929 0.0884358
638.652 0.123292
639.014 0.157497
639.376 0.218721
639.557 0.269382
639.737 0.345285
639.918 0.466509
640.099 0.677731
640.280 1.09597
640.370 1.47795
640.461 2.10949
640.551 3.26132
640.596 4.22658
640.641 5.68413
640.687 8.01511
640.732 12.0147
640.777 19.4427
640.822 33.9570
640.861 54.3160
640.900 67.8340
640.939 54.2568
640.978 33.9093
641.008 23.1986
641.039 16.3627
641.069 11.9765
641.099 9.07205
641.159 5.66194
641.220 3.84849
641.280 2.77918
641.340 2.10086
641.461 1.32506
641.582 0.915932
641.703 0.675022
641.823 0.521368
641.944 0.417471
642.186 0.290073
642.427 0.217984
642.669 0.173290
642.910 0.143705
643.393 0.108195
643.876 0.0885379
644.842 0.0687012
645.808 0.0594453
646.774 0.0544409
648.705 0.0496190
650.637 0.0476403
652.569 0.0468755
656.432 0.0472562
660.296 0.0500688
662.228 0.0531745
664.160 0.0589149
666.091 0.0711282
667.057 0.0831833
668.023 0.104950
668.506 0.123132
668.989 0.150673
669.472 0.195361
669.955 0.275074
670.196 0.340806
670.438 0.439069
670.679 0.595461
670.921 0.866488
671.162 1.39885
671.283 1.88103
671.404 2.67102
671.525 4.09390
671.585 5.27015
671.645 7.01860
671.706 9.76604
671.766 14.3448
671.826 22.5303
671.887 37.6662
671.943 60.2397
672.000 75.2900
672.057 60.2442
672.113 37.6722
672.161 24.9595
672.209 17.1633
672.257 12.3278
672.305 9.20857
672.400 5.64125
672.496 3.78917
672.591 2.71690
672.687 2.04421
672.878 1.28257
673.069 0.885416
673.261 0.653033
673.452 0.505684
673.643 0.406623
674.025 0.286114
674.408 0.219027
674.790 0.178628
675.172 0.153427
675.937 0.130267
676.319 0.130056
676.702 0.140553
677.084 0.172893
677.275 0.207573
677.466 0.270799
677.658 0.400390
677.753 0.521636
677.849 0.726238
677.944 1.11003
677.992 1.44076
678.040 1.95433
678.088 2.80822
678.136 4.35892
678.160 5.63482
678.183 7.49825
678.207 10.2820
678.231 14.4153
678.266 23.0234
678.300 28.7347
678.335 22.9973
678.369 14.3948
678.409 8.25272
678.449 5.11446
678.489 3.42639
678.529 2.44314
678.570 1.82850
678.610 1.42151
678.690 0.936239
678.770 0.669619
678.850 0.508223
679.010 0.331315
679.171 0.241474
679.331 0.189648
679.652 0.134932
679.973 0.107897
680.293 0.0923944
680.935 0.0758782
682.217 0.0624600
683.500 0.0568759
685.861 0.0523828
688.221 0.0505511
692.942 0.0497061
697.663 0.0507125
702.384 0.0533417
707.105 0.0587148
709.465 0.0635670
711.825 0.0716906
714.186 0.0875744
715.366 0.102492
716.546 0.128663
717.727 0.182445
