Mo-94(n,g) ENDF/B-VII.1
Energy(eV) XS(b)
1.00000E-05 17.1213
1.25000E-05 15.3138
1.50000E-05 13.9795
2.00000E-05 12.1066
2.75000E-05 10.3246
3.50000E-05 9.15174
4.25000E-05 8.30507
5.00000E-05 7.65689
6.25000E-05 6.84853
7.50000E-05 6.25182
0.000100000 5.41424
0.000125000 4.84264
0.000150000 4.42070
0.000200000 3.82844
0.000275000 3.26490
0.000350000 2.89402
0.000425000 2.62628
0.000500000 2.42131
0.000625000 2.16568
0.000750000 1.97698
0.00100000 1.71211
0.00125000 1.53135
0.00150000 1.39792
0.00200000 1.21063
0.00275000 1.03242
0.00350000 0.915132
0.00425000 0.830460
0.00500000 0.765639
0.00625000 0.684797
0.00750000 0.625121
0.0100000 0.541352
0.0125000 0.484184
0.0150000 0.441983
0.0200000 0.382743
0.0253000 0.340276
0.0314750 0.305051
0.0376500 0.278893
0.0500000 0.241971
0.0625000 0.216390
0.0750000 0.197503
0.100000 0.170986
0.125000 0.152884
0.150000 0.139517
0.200000 0.120745
0.275000 0.102869
0.350000 0.0910926
0.500000 0.0760620
0.750000 0.0618990
1.00000 0.0534292
1.50000 0.0433382
2.00000 0.0372864
2.75000 0.0314878
3.50000 0.0276403
5.00000 0.0226831
7.50000 0.0179426
10.0000 0.0150628
15.0000 0.0115770
20.0000 0.00945864
27.5000 0.00742096
35.0000 0.00607958
50.0000 0.00440522
75.0000 0.00299813
87.5000 0.00276737
93.7500 0.00297026
96.8750 0.00335175
100.000 0.00432786
102.177 0.00605957
103.265 0.00781793
104.353 0.0110492
104.897 0.0137809
105.441 0.0179552
105.985 0.0247914
106.530 0.0371279
106.802 0.0474035
107.074 0.0629064
107.346 0.0878764
107.618 0.131880
107.754 0.167721
107.890 0.220563
108.026 0.303127
108.162 0.442479
108.298 0.705015
108.366 0.932246
108.434 1.28707
108.502 1.88189
108.570 2.97595
108.604 3.88792
108.638 5.23657
108.672 7.28313
108.706 10.3922
108.753 16.6220
108.800 20.7749
108.847 16.6292
108.894 10.4012
108.939 6.56430
108.983 4.34768
109.028 3.03843
109.072 2.22405
109.161 1.32503
109.250 0.873867
109.339 0.617683
109.428 0.459219
109.606 0.282196
109.784 0.190908
109.962 0.137887
110.140 0.104379
110.318 0.0818914
110.674 0.0545061
111.029 0.0391053
111.385 0.0295925
111.741 0.0233081
112.453 0.0157750
113.165 0.0116008
114.588 0.00736606
116.012 0.00535898
117.435 0.00424474
120.282 0.00309971
125.976 0.00221116
131.671 0.00184264
143.059 0.00148749
154.447 0.00128823
200.000 0.000869348
275.000 0.000564253
350.000 0.000421067
500.000 0.000303951
625.000 0.000277129
750.000 0.000285656
875.000 0.000335048
937.500 0.000398406
968.750 0.000468091
1000.00 0.000656743
1025.80 0.00148461
1032.25 0.00232318
1038.70 0.00469644
1041.93 0.00799156
1045.15 0.0172981
1046.77 0.0301432
1047.57 0.0428850
1048.38 0.0659858
1049.19 0.114769
1049.59 0.162493
1049.99 0.247703
1050.19 0.318170
1050.39 0.422957
1050.60 0.590480
1050.80 0.879140
1051.00 1.44776
1051.10 1.96266
1051.20 2.79482
1051.30 4.29976
1051.35 5.55480
1051.40 7.38152
1051.45 10.2948
1051.50 15.0340
1051.55 23.3686
1051.60 38.5127
1051.65 61.8583
1051.70 76.9934
1051.75 61.3530
1051.80 38.5159
1051.83 28.3848
1051.86 21.2862
1051.92 12.8335
1051.98 8.41836
1052.04 5.92942
1052.10 4.36307
1052.16 3.33711
1052.28 2.13335
1052.40 1.47335
1052.51 1.07983
1052.75 0.649190
1052.99 0.432646
1053.23 0.308773
1053.47 0.231388
1053.71 0.179850
1054.19 0.117637
1054.67 0.0829546
1055.62 0.0476713
1056.58 0.0309948
1057.53 0.0218169
1059.44 0.0125887
1063.27 0.00590808
1067.09 0.00354857
1074.74 0.00185697
1082.38 0.00126828
1097.68 0.000861251
1112.97 0.000735929
1143.56 0.000689035
1174.14 0.000728691
1235.32 0.000931702
1296.49 0.00134134
1327.08 0.00169163
1357.66 0.00222915
1388.25 0.00311472
1418.84 0.00473126
1434.13 0.00609652
1449.42 0.00818810
1464.72 0.0116343
1480.01 0.0179269
1487.66 0.0232397
1495.30 0.0313709
1502.95 0.0447449
1510.59 0.0690767
1514.42 0.0895401
1518.24 0.120720
1522.06 0.171672
1525.89 0.263493
1527.80 0.339953
1529.71 0.455336
1530.67 0.536439
1531.62 0.641327
1532.10 0.705704
1532.58 0.780285
1533.06 0.867342
1533.53 0.969583
1534.01 1.09129
1534.49 1.23740
1534.97 1.41490
1535.45 1.63342
1535.92 1.90661
1536.40 2.25425
1536.88 2.70591
1537.36 3.30588
1537.84 4.13016
1538.31 5.30217
1538.79 7.04539
1539.27 9.79147
1539.75 14.4542
1539.99 18.0880
1540.23 23.2001
1540.46 30.6387
1540.70 41.8566
1540.94 59.3059
1541.18 86.4353
1541.49 138.278
1541.80 172.805
1542.11 138.210
1542.42 86.3698
1542.65 59.8924
1542.88 42.7525
1543.11 31.5670
1543.34 24.0607
1543.80 15.1118
1544.26 10.2964
1544.72 7.43257
1545.18 5.60921
1546.10 3.50813
1547.03 2.39542
1547.95 1.73754
1548.87 1.31707
1549.79 1.03233
1551.63 0.682759
1553.47 0.484610
1555.31 0.361615
1557.16 0.280090
1560.84 0.182170
1564.52 0.127865
1568.21 0.0946625
1571.89 0.0729044
1579.26 0.0470666
1586.63 0.0329161
1594.00 0.0243547
1601.36 0.0188065
1616.10 0.0123996
1630.83 0.00938887
1638.20 0.00900165
1645.57 0.0103846
1649.25 0.0132394
1652.94 0.0221040
1654.78 0.0346965
1655.70 0.0473040
1656.62 0.0702800
1657.54 0.118970
1658.00 0.166918
1658.46 0.252720
1658.92 0.430812
1659.15 0.601418
1659.38 0.899097
1659.61 1.48928
1659.73 2.02961
1659.84 2.92491
1659.96 4.56321
1660.02 5.95532
1660.07 8.02803
1660.13 11.4193
1660.19 17.1753
1660.25 28.1732
1660.30 49.5687
1660.35 79.5867
1660.40 99.0365
1660.45 78.9361
1660.50 49.5713
1660.54 32.4822
1660.58 22.3272
1660.62 15.9080
1660.66 11.8846
1660.75 7.23500
1660.83 4.83117
1660.91 3.44318
1661.00 2.57399
1661.16 1.59141
1661.33 1.07967
1661.49 0.780323
1661.66 0.590411
1661.82 0.463132
1662.16 0.306633
1662.49 0.218616
1663.15 0.127945
1663.81 0.0846598
1664.48 0.0606785
1665.80 0.0363889
1668.46 0.0186012
1671.11 0.0121851
1676.41 0.00737645
1681.72 0.00552139
1692.33 0.00393302
1702.94 0.00317275
1724.15 0.00235180
1745.37 0.00188257
1787.81 0.00135947
1830.25 0.00109847
1872.69 0.000977955
1915.13 0.000960407
1957.56 0.00105189
2000.00 0.00131286
2022.27 0.00157293
2044.54 0.00199233
2066.82 0.00270691
2089.09 0.00404274
2111.36 0.00695173
2122.50 0.00988389
2133.63 0.0152806
2139.20 0.0198643
2144.77 0.0269146
2150.34 0.0385759
2155.90 0.0599497
2158.69 0.0780404
2161.47 0.105781
2164.26 0.151483
2167.04 0.234786
2168.43 0.304910
2169.82 0.411872
2171.22 0.586819
2172.61 0.902378
2173.30 1.16524
2174.00 1.56205
2174.70 2.20192
2175.39 3.33240
2175.74 4.25465
2176.09 5.61861
2176.44 7.75728
2176.78 11.3857
2177.13 18.2704
2177.31 24.2840
2177.48 33.7594
2177.65 49.8529
2177.83 80.0504
2177.91 105.743
2178.00 144.499
2178.09 204.800
2178.17 297.733
2178.29 476.889
2178.40 596.520
2178.51 476.863
2178.63 297.725
2178.75 177.230
2178.87 112.874
2178.99 76.7765
2179.11 55.1316
2179.23 41.2292
2179.35 31.9771
2179.59 20.7677
2179.83 14.5104
2180.07 10.7075
2180.55 6.50558
2181.03 4.35994
2181.51 3.12489
2181.99 2.34722
2182.47 1.82820
2183.43 1.19773
2184.39 0.845226
2185.36 0.628221
2186.32 0.485230
2188.24 0.314413
2190.16 0.220256
2192.08 0.162879
2194.01 0.125351
2197.85 0.0808576
2201.69 0.0565023
2205.54 0.0417306
2209.38 0.0321054
2217.07 0.0207327
2224.76 0.0145266
2240.14 0.00832591
2255.52 0.00544037
2270.90 0.00386619
2301.65 0.00229261
2332.41 0.00155936
2363.17 0.00115894
2424.68 0.000759695
2547.71 0.000482932
2670.74 0.000410629
2793.76 0.000423563
2916.79 0.000536085
2978.31 0.000687601
3009.06 0.000830446
3039.82 0.00108105
3070.58 0.00159980
3101.33 0.00303389
3116.71 0.00501063
3132.09 0.0106072
3139.78 0.0183901
3143.62 0.0261812
3147.47 0.0404463
3151.31 0.0710247
3153.23 0.101499
3155.16 0.157030
3156.12 0.203827
3157.08 0.275141
3158.04 0.391775
3159.00 0.602142
3159.48 0.777595
3159.96 1.04191
3160.44 1.46906
3160.92 2.22218
3161.16 2.83939
3161.40 3.74892
3161.64 5.17475
3161.88 7.59316
3162.13 12.2073
3162.25 16.2270
3162.37 22.5624
3162.49 33.3277
3162.61 53.5431
3162.67 70.7576
3162.73 96.7499
3162.79 137.248
3162.85 200.677
3162.92 321.961
3163.00 401.450
3163.08 320.296
3163.16 200.675
3163.21 145.076
3163.26 107.654
3163.36 63.9507
3163.46 41.5641
3163.56 28.9390
3163.66 21.2199
3163.76 16.1893
3163.96 10.2799
3164.16 7.08834
3164.36 5.17688
3164.76 3.10361
3165.16 2.06453
3165.56 1.47137
3165.96 1.10135
3166.36 0.855180
3167.16 0.558338
3167.96 0.393031
3168.76 0.291646
3169.56 0.225024
3171.16 0.145688
3172.76 0.102052
3175.96 0.0581846
3179.16 0.0376715
3182.36 0.0264644
3188.76 0.0152636
3201.56 0.00722884
3214.36 0.00442394
3239.96 0.00246634
3265.56 0.00184835
3291.16 0.00163903
3316.76 0.00161572
3367.97 0.00192134
3419.17 0.00279952
3444.77 0.00366043
3470.37 0.00513301
3495.97 0.00794612
3508.77 0.0104366
3521.57 0.0144626
3534.38 0.0217267
3540.78 0.0279073
3547.18 0.0376826
3553.58 0.0552510
3556.78 0.0705081
3559.98 0.0956003
3563.18 0.143891
3564.78 0.188747
3566.38 0.266769
3567.98 0.425483
3568.78 0.577579
3569.58 0.845333
3570.38 1.38797
3570.78 1.89879
3571.18 2.77330
3571.58 4.45850
3571.78 5.95598
3571.98 8.35959
3572.18 12.5547
3572.38 20.7710
3572.48 28.0840
3572.58 39.6283
3572.68 58.6967
3572.78 90.7157
3572.89 145.129
3573.00 181.415
3573.11 145.122
3573.22 90.7147
3573.32 59.6903
3573.42 40.8258
3573.51 29.2078
3573.61 21.8160
3573.80 13.3339
3573.99 8.94292
3574.18 6.40555
3574.37 4.81602
3574.75 3.01930
3575.14 2.08462
3575.52 1.53922
3576.28 0.963854
3577.05 0.685524
3577.81 0.533516
3579.34 0.390018
3580.87 0.339261
3582.40 0.332080
3583.92 0.353575
3584.69 0.374010
3585.45 0.401325
3586.22 0.436436
3586.98 0.480619
3587.75 0.535918
3588.51 0.605197
3589.27 0.692678
3590.04 0.804060
3590.80 0.948187
3591.57 1.13831
3592.33 1.39561
3593.10 1.75335
3593.86 2.26993
3594.62 3.05068
3595.39 4.30181
3596.15 6.44633
3596.53 8.11438
3596.92 10.4277
3597.30 13.6751
3597.68 18.2038
3598.34 29.1323
3599.00 36.4192
3599.66 29.1175
3600.32 18.1881
3601.07 10.5217
3601.82 6.54632
3602.57 4.38439
3603.32 3.11699
3604.06 2.31931
3604.81 1.78973
3606.31 1.15476
3607.81 0.804995
3609.30 0.592956
3612.30 0.360061
3615.29 0.241830
3618.29 0.173751
3621.28 0.130963
3624.28 0.102334
3630.27 0.0675527
3636.25 0.0480130
3642.24 0.0359402
3648.23 0.0279561
3660.21 0.0183763
3672.19 0.0130617
3684.17 0.00980894
3696.14 0.00767509
3720.10 0.00514120
3744.06 0.00375742
3768.01 0.00292689
3791.97 0.00239652
3839.88 0.00180542
3887.79 0.00153781
3983.61 0.00148140
4079.43 0.00196241
4127.35 0.00255365
4175.26 0.00368506
4199.21 0.00465661
4223.17 0.00615538
4247.12 0.00863633
4271.08 0.0131812
4283.06 0.0170248
4295.04 0.0229138
4307.01 0.0326055
4318.99 0.0502437
4324.98 0.0650720
4330.97 0.0876600
4336.96 0.124538
4342.95 0.190878
4345.94 0.246001
4348.94 0.328965
4351.93 0.462300
4354.92 0.696521
4356.42 0.886696
4357.92 1.16629
4359.42 1.60151
4360.91 2.33221
4362.41 3.69648
4363.16 4.86898
4363.91 6.68169
4364.66 9.68789
4365.40 15.1099
4365.78 19.5602
4366.15 26.0127
4366.53 35.5949
4366.90 49.8069
4367.45 79.8375
4368.00 99.8381
4368.55 79.7456
4369.10 49.7853
4369.59 32.0833
4370.09 21.6068
4370.58 15.2706
4371.07 11.2739
4372.06 6.78725
4373.05 4.50265
4374.03 3.19376
4375.02 2.37983
4376.99 1.46429
4378.97 0.989770
4380.94 0.713282
4382.91 0.538265
4384.89 0.420572
4388.83 0.277071
4392.78 0.196311
4396.72 0.146411
4400.67 0.113442
4408.56 0.0739650
4416.46 0.0521437
4424.35 0.0388311
4432.24 0.0301248
4448.03 0.0198253
4463.81 0.0142325
4479.60 0.0109064
4495.38 0.00882820
4526.95 0.00679063
4542.74 0.00657779
4558.52 0.00705699
4574.31 0.00892362
4582.20 0.0110636
4590.09 0.0151601
4594.04 0.0186900
4597.99 0.0241424
4601.93 0.0331667
4605.88 0.0496554
4607.85 0.0635529
4609.82 0.0847405
4611.80 0.119376
4613.77 0.181779
4614.76 0.233727
4615.74 0.311968
4616.73 0.438048
4617.72 0.660007
4618.21 0.841018
4618.70 1.10759
4619.20 1.52411
4619.44 1.82688
4619.69 2.22728
4619.94 2.77675
4620.18 3.55517
4620.31 4.07387
4620.43 4.70734
4620.55 5.49794
4620.68 6.50093
4620.80 7.80936
4620.92 9.52520
4621.05 11.8473
4621.17 15.0784
4621.29 19.7601
4621.42 26.6505
4621.54 37.1322
4621.66 53.1016
4621.83 84.9589
4622.00 106.194
4622.17 84.9520
4622.34 53.0948
4622.49 34.5226
4622.64 23.3874
4622.79 16.6090
4622.93 12.2977
4623.23 7.43491
4623.53 4.94314
4623.83 3.51245
4624.13 2.61996
4624.72 1.61585
4625.32 1.09357
4625.91 0.788775
4626.51 0.595732
4627.10 0.466047
4628.30 0.307594
4629.49 0.218428
4630.68 0.163270
4631.87 0.126850
4634.25 0.0832075
4636.64 0.0590628
4639.02 0.0443179
4641.40 0.0346564
4646.17 0.0231792
4650.93 0.0168759
4655.70 0.0130422
4660.47 0.0105361
4670.00 0.00756174
4679.53 0.00592988
4698.59 0.00430134
4717.66 0.00357402
4736.72 0.00323750
4774.85 0.00319120
4812.97 0.00393869
4832.04 0.00485856
4851.10 0.00662394
4860.63 0.00814110
4870.16 0.0104807
4879.70 0.0143489
4889.23 0.0214175
4893.99 0.0273796
4898.76 0.0364892
4903.53 0.0514225
4908.29 0.0784402
4910.67 0.101025
4913.06 0.135231
4915.44 0.190643
4917.82 0.289197
4919.01 0.370180
4920.21 0.490642
4921.40 0.681397
4922.59 1.00897
4923.78 1.64374
4924.38 2.21041
4924.97 3.12212
4925.57 4.72545
4926.16 7.88853
4926.46 10.7354
4926.76 15.2757
4927.06 22.8791
4927.35 35.8071
4927.68 57.3644
4928.00 71.6859
4928.32 57.2820
4928.65 35.7999
4928.93 23.4801
4929.21 16.0149
4929.48 11.4299
4929.76 8.50242
4930.32 5.16447
4930.88 3.44587
4931.44 2.45308
4931.99 1.83308
4933.11 1.13205
4934.22 0.767240
4935.34 0.553954
4936.45 0.418690
4937.57 0.327606
4939.80 0.216418
4942.03 0.153742
4944.26 0.114982
4946.49 0.0893676
4950.95 0.0586671
4955.41 0.0416885
4959.87 0.0313249
4964.32 0.0245449
4973.24 0.0165164
4982.16 0.0121424
5000.00 0.00783933
5032.96 0.00519001
5065.93 0.00500707
5082.41 0.00586617
5098.89 0.00875184
5107.13 0.0128653
5115.37 0.0245516
5119.49 0.0407593
5121.55 0.0569187
5123.61 0.0863860
5125.67 0.149098
5126.70 0.211140
5127.73 0.323247
5128.76 0.558295
5129.27 0.787042
5129.79 1.19271
5130.05 1.52570
5130.30 2.01811
5130.56 2.79733
5130.82 4.12396
5131.08 6.68115
5131.21 8.94546
5131.33 12.5289
5131.46 18.7759
5131.59 30.8680
5131.66 41.5961
5131.72 58.0490
5131.79 84.6386
5131.85 128.119
5131.93 205.548
5132.00 256.267
5132.08 204.458
5132.15 128.118
5132.22 81.0471
5132.29 54.0628
5132.36 37.7979
5132.43 27.7836
5132.57 16.5868
5132.71 10.9724
5132.86 7.75339
5133.00 5.76037
5133.28 3.53678
5133.56 2.38505
5133.84 1.71775
5134.12 1.29461
5134.40 1.01147
5134.97 0.666099
5135.53 0.471964
5136.65 0.273153
5137.78 0.178462
5138.91 0.126185
5141.16 0.0733929
5145.66 0.0350758
5150.16 0.0215262
5159.17 0.0118576
5168.17 0.00856498
5177.17 0.00714984
5186.18 0.00649656
5204.19 0.00617415
5240.20 0.00724988
5276.22 0.0101826
5294.23 0.0127607
5312.24 0.0166893
5330.25 0.0230170
5339.25 0.0277188
5348.26 0.0340900
5352.76 0.0381582
5357.26 0.0430159
5359.51 0.0458061
5361.76 0.0488809
5364.01 0.0522798
5366.27 0.0560499
5368.52 0.0602467
5370.77 0.0649367
5375.27 0.0761323
5379.77 0.0905027
5384.27 0.109356
5388.78 0.134749
5393.28 0.170015
5397.78 0.220890
5402.28 0.297786
5406.78 0.420931
5411.29 0.632663
5413.54 0.797726
5415.79 1.02713
5418.04 1.34995
5420.29 1.80129
5424.15 2.88101
5428.00 3.59842
5431.86 2.87588
5435.71 1.79657
5440.26 1.01872
5444.81 0.626327
5449.36 0.422433
5451.63 0.377981
5452.20 0.387188
5452.77 0.437031
5453.05 0.512561
5453.34 0.711660
5453.48 0.952135
5453.62 1.49188
5453.69 2.04817
5453.76 3.07958
5453.83 5.23600
5453.87 7.24544
5453.90 10.2416
5453.95 16.2104
5454.00 20.1894
5454.05 16.2086
5454.10 10.2379
5454.16 5.80406
5454.21 3.64561
5454.27 2.50341
5454.33 1.84490
5454.45 1.16237
5454.56 0.843148
5454.80 0.560499
5455.03 0.442531
5455.49 0.343802
5455.96 0.301502
5457.82 0.237545
5461.54 0.183414
5468.98 0.123556
5476.43 0.0891646
5483.87 0.0673684
5498.76 0.0423198
5513.65 0.0290365
5528.53 0.0211631
5543.42 0.0161190
5573.20 0.0102655
5602.97 0.00712782
5632.75 0.00525254
5692.30 0.00321671
5751.85 0.00219249
5811.40 0.00160523
5930.49 0.000992941
6049.59 0.000701047
6168.69 0.000550683
6287.79 0.000503748
6347.34 0.000613330
6377.12 0.00110470
6392.00 0.00305363
6399.45 0.0107120
6403.17 0.0403206
6404.10 0.0699992
6405.03 0.150968
6405.50 0.257872
6405.96 0.536790
6406.19 0.885340
6406.43 1.71531
6406.54 2.65248
6406.66 4.56802
6406.72 6.36548
6406.78 9.36589
6406.83 14.7201
6406.89 24.6368
6406.95 39.5638
6407.00 49.2744
6407.06 39.2746
6407.11 24.6370
6407.15 17.4807
6407.19 12.6976
6407.22 9.50237
6407.26 7.31794
6407.34 4.66698
6407.41 3.20911
6407.57 1.76855
6407.72 1.11655
6408.02 0.557897
6408.32 0.333188
6408.93 0.157465
6409.53 0.0914759
6410.75 0.0421539
6411.96 0.0242724
6416.81 0.00655323
6426.51 0.00200905
6445.90 0.000870321
6484.69 0.000627704
6523.48 0.000664339
6562.27 0.000824302
6601.06 0.00121502
6620.46 0.00161791
6639.86 0.00236320
6649.55 0.00299674
6659.25 0.00397058
6668.95 0.00557880
6678.65 0.00851837
6683.50 0.0109999
6688.34 0.0147954
6693.19 0.0210265
6698.04 0.0323254
6700.47 0.0417944
6702.89 0.0561637
6705.32 0.0795261
6707.74 0.121260
6708.95 0.155733
6710.16 0.207266
6711.38 0.289332
6712.59 0.431723
6713.19 0.545797
6713.80 0.711559
6714.41 0.965354
6714.71 1.14591
6715.01 1.38160
6715.32 1.69699
6715.62 2.13165
6715.92 2.75237
6716.22 3.67796
6716.53 5.13283
6716.68 6.18900
6716.83 7.56835
6716.98 9.42583
6717.13 11.9322
6717.29 15.3895
6717.44 20.0568
6717.72 32.0728
6718.00 40.0747
6718.14 37.6888
6718.28 32.0241
6718.57 20.0182
6718.80 13.2976
6719.04 9.15985
6719.27 6.58474
6719.51 4.92495
6719.98 3.01223
6720.45 2.01850
6720.92 1.44081
6721.39 1.07871
6722.34 0.667931
6723.28 0.453120
6724.22 0.327261
6725.17 0.247325
6726.11 0.193489
6727.99 0.127621
6729.88 0.0904706
6731.76 0.0674766
6733.65 0.0522660
6737.42 0.0340281
6741.19 0.0239322
6744.96 0.0177658
6748.73 0.0137270
6756.27 0.00893117
6763.81 0.00630223
6771.36 0.00470704
6778.90 0.00366739
6793.98 0.00244008
6809.06 0.00177220
6824.15 0.00137089
6839.23 0.00111371
6869.39 0.000829940
6899.56 0.000743219
6914.64 0.000803584
6929.73 0.00109431
6944.81 0.00286136
6952.35 0.00994128
6956.12 0.0373782
6957.06 0.0648791
6958.01 0.139897
6958.48 0.239235
6958.95 0.498157
6959.18 0.821879
6959.42 1.59341
6959.54 2.46039
6959.66 4.25063
6959.71 5.93781
6959.77 8.76704
6959.83 13.8476
6959.89 23.2218
6959.95 37.0873
6960.00 46.4443
6960.06 37.0874
6960.11 23.2220
6960.15 16.1460
6960.19 11.4890
6960.23 8.46156
6960.27 6.43673
6960.36 4.03524
6960.44 2.74417
6960.60 1.49262
6960.77 0.932884
6961.09 0.461945
6961.42 0.274975
6962.08 0.129285
6962.73 0.0749723
6965.35 0.0198445
6970.60 0.00536558
6981.08 0.00164303
7002.06 0.000679970
7023.03 0.000487839
7044.01 0.000417050
7085.96 0.000414029
7106.93 0.000661091
7117.42 0.00170667
7122.66 0.00582739
7125.28 0.0216316
7126.59 0.0796560
7127.25 0.274931
7127.41 0.444945
7127.58 0.835338
7127.74 2.05403
7127.82 3.85542
7127.86 5.63152
7127.90 8.52480
7127.95 13.6466
7128.00 17.0406
7128.05 13.6467
7128.10 8.51605
7128.14 5.41676
7128.19 3.59955
7128.28 1.84796
7128.46 0.727117
7128.82 0.234132
7129.54 0.0670335
7130.97 0.0181355
7133.85 0.00490379
7139.60 0.00145947
7151.11 0.000576666
7174.12 0.000346388
7220.14 0.000279403
7312.18 0.000259136
7496.27 0.000298922
7588.31 0.000370771
7634.34 0.000439572
