Mo-100(n,g) ENDF/B-VII.1
Energy(eV) XS(b)
1.00000E-05 10.0119
1.25000E-05 8.95487
1.50000E-05 8.17464
2.00000E-05 7.07945
2.75000E-05 6.03737
3.50000E-05 5.35156
4.25000E-05 4.85646
5.00000E-05 4.47743
6.25000E-05 4.00474
7.50000E-05 3.65581
0.000100000 3.16602
0.000125000 2.83178
0.000150000 2.58505
0.000200000 2.23872
0.000275000 1.90918
0.000350000 1.69231
0.000425000 1.53574
0.000500000 1.41589
0.000625000 1.26641
0.000750000 1.15607
0.00100000 1.00118
0.00125000 0.895482
0.00150000 0.817458
0.00200000 0.707938
0.00275000 0.603729
0.00350000 0.535147
0.00425000 0.485636
0.00500000 0.447733
0.00625000 0.400462
0.00750000 0.365568
0.0100000 0.316587
0.0125000 0.283161
0.0150000 0.258486
0.0200000 0.223851
0.0253000 0.199022
0.0314750 0.178430
0.0376500 0.163138
0.0500000 0.141555
0.0625000 0.126603
0.0750000 0.115566
0.100000 0.100071
0.125000 0.0894957
0.150000 0.0816883
0.200000 0.0707275
0.275000 0.0602952
0.350000 0.0534271
0.500000 0.0446689
0.750000 0.0364294
1.00000 0.0315122
1.50000 0.0256705
2.00000 0.0221808
2.75000 0.0188526
3.50000 0.0166562
5.00000 0.0138470
7.50000 0.0111928
10.0000 0.00960297
15.0000 0.00771149
20.0000 0.00658623
27.5000 0.00552889
35.0000 0.00485368
50.0000 0.00406206
73.5800 0.00367948
79.4749 0.00385172
85.3699 0.00453500
88.3174 0.00556693
89.7912 0.00662276
91.2649 0.00857866
92.7387 0.0128116
93.4755 0.0170599
94.2124 0.0248462
94.5809 0.0314322
94.9493 0.0415209
95.3177 0.0581131
95.6862 0.0882685
95.8704 0.113575
96.0546 0.152051
96.2388 0.214697
96.4230 0.326917
96.5151 0.419749
96.6073 0.558918
96.6994 0.781191
96.7915 1.16843
96.8836 1.93425
96.9296 2.63356
96.9757 3.78849
97.0218 5.89258
97.0448 7.65339
97.0678 10.3070
97.0908 14.5435
97.1139 21.7871
97.1369 35.1851
97.1599 61.1944
97.1800 97.9378
97.2000 122.449
97.2201 97.9577
97.2401 61.2195
97.2617 36.3850
97.2832 23.0696
97.3048 15.6432
97.3264 11.2088
97.3479 8.38722
97.3695 6.49633
97.4126 4.21170
97.4557 2.94365
97.4989 2.17071
97.5851 1.31839
97.6713 0.884604
97.7576 0.634567
97.8438 0.477539
97.9301 0.372559
98.1026 0.245305
98.2751 0.174075
98.4476 0.130227
98.6201 0.101333
98.9650 0.0668202
99.3100 0.0477765
99.6550 0.0361665
100.000 0.0285687
100.781 0.0187338
101.563 0.0136789
102.344 0.0107393
103.125 0.00887949
104.688 0.00674485
106.250 0.00561120
109.375 0.00450394
112.500 0.00399981
125.000 0.00341446
150.000 0.00342194
200.000 0.00452843
220.418 0.00548134
240.836 0.00698473
261.254 0.00949267
281.673 0.0140885
291.882 0.0179681
302.091 0.0239037
312.300 0.0336635
322.509 0.0514429
327.613 0.0664271
332.718 0.0893371
337.822 0.126978
342.927 0.195429
345.479 0.252983
348.032 0.340732
349.308 0.403020
350.584 0.484266
351.222 0.534510
351.541 0.562633
351.860 0.593050
352.179 0.626029
352.498 0.661842
352.817 0.700839
353.136 0.743406
353.455 0.790011
353.774 0.841146
354.412 0.959625
355.050 1.10516
355.688 1.28664
356.326 1.51703
356.964 1.81553
357.603 2.21203
358.241 2.75444
358.879 3.52440
359.517 4.66914
360.155 6.47727
360.793 9.57739
361.112 12.0332
361.431 15.5611
361.750 20.8830
362.069 29.4323
362.388 44.3768
362.548 56.3607
362.707 73.6900
362.867 99.8283
363.026 141.167
363.186 209.619
363.345 324.895
363.523 519.659
363.700 649.187
363.878 519.040
364.055 324.292
364.188 224.535
364.321 159.855
364.453 117.787
364.586 89.6508
364.852 56.2348
365.117 38.2525
365.383 27.5946
365.648 20.8042
366.179 12.9977
366.710 8.86717
367.241 6.42734
367.772 4.86887
368.303 3.81397
369.365 2.51954
370.428 1.78635
371.490 1.33153
372.552 1.03025
374.676 0.668619
376.800 0.468261
378.924 0.345859
381.048 0.265694
385.297 0.170605
389.545 0.118558
393.793 0.0870409
398.041 0.0665397
406.538 0.0424058
415.034 0.0293103
423.531 0.0214396
432.028 0.0163576
449.021 0.0104578
466.014 0.00740355
483.007 0.00604275
491.504 0.00646184
495.752 0.00777847
497.876 0.00934687
500.000 0.0125724
501.840 0.0189662
502.759 0.0254073
503.679 0.0372307
504.599 0.0625888
505.059 0.0878561
505.518 0.133844
505.748 0.172521
505.978 0.231413
506.208 0.327548
506.438 0.500452
506.553 0.644140
506.668 0.860478
506.783 1.20807
506.898 1.81822
506.956 2.31361
507.013 3.04242
507.071 4.17703
507.128 6.07799
507.185 9.63215
507.214 12.6910
507.243 17.4099
507.272 25.2538
507.300 39.3699
507.315 50.9596
507.329 67.6701
507.344 92.6358
507.358 129.350
507.379 206.979
507.400 258.741
507.421 206.986
507.442 129.360
507.456 93.2791
507.470 68.6752
507.498 40.4010
507.526 26.0594
507.554 18.0737
507.582 13.2037
507.610 10.0554
507.666 6.36550
507.722 4.38116
507.778 3.19607
507.834 2.43327
507.889 1.91398
508.001 1.27296
508.113 0.907585
508.225 0.679896
508.337 0.528639
508.560 0.346200
508.784 0.244717
509.007 0.182474
509.231 0.141603
509.678 0.0929256
510.125 0.0661660
511.019 0.0392705
511.914 0.0267013
512.808 0.0198406
514.596 0.0130167
516.385 0.00990889
518.173 0.00831265
521.750 0.00715273
525.327 0.00777002
528.904 0.0116414
530.693 0.0176128
531.587 0.0237069
532.481 0.0349442
533.375 0.0591054
533.822 0.0831962
534.270 0.127059
534.493 0.163939
534.717 0.220079
534.940 0.311735
535.164 0.476428
535.276 0.613204
535.387 0.819004
535.499 1.14937
535.611 1.72850
535.667 2.19810
535.723 2.88809
535.779 3.96040
535.834 5.75667
535.890 9.09887
535.918 11.9647
535.946 16.3687
535.974 23.6501
536.002 36.6470
536.030 62.3765
536.044 84.7955
536.058 117.418
536.079 188.063
536.100 234.869
536.121 187.711
536.142 117.426
536.158 81.9605
536.173 58.8571
536.188 43.5798
536.204 33.3425
536.234 21.0443
536.265 14.3904
536.296 10.4114
536.326 7.86620
536.388 4.93368
536.449 3.37385
536.510 2.45150
536.572 1.86103
536.633 1.46065
536.756 0.968144
536.878 0.688661
537.001 0.515026
537.124 0.399925
537.369 0.261415
537.614 0.184531
537.860 0.137460
538.105 0.106565
538.596 0.0698063
539.086 0.0496071
540.067 0.0292943
541.049 0.0197793
542.030 0.0145596
543.993 0.00929948
547.918 0.00542381
551.843 0.00397887
559.694 0.00281366
567.544 0.00230036
583.245 0.00177938
598.946 0.00148319
630.348 0.00112630
661.750 0.000915142
693.152 0.000787947
724.553 0.000742011
740.254 0.000780517
755.955 0.000967378
763.806 0.00125919
771.656 0.00211848
775.582 0.00333100
779.507 0.00679489
781.469 0.0116266
782.451 0.0164656
783.432 0.0253283
784.413 0.0443136
784.904 0.0632292
785.395 0.0976657
785.885 0.170777
786.131 0.242878
786.376 0.372691
786.499 0.480683
786.621 0.643451
786.744 0.905355
786.867 1.36613
786.928 1.74140
786.989 2.29378
787.051 3.15591
787.112 4.60894
787.173 7.34435
787.204 9.71070
787.235 13.3867
787.265 19.5541
787.296 30.8169
787.311 40.2350
787.327 54.0309
787.342 74.8591
787.357 106.322
787.379 170.285
787.400 212.667
787.422 169.970
787.443 106.326
787.456 78.8208
787.469 59.4084
787.495 36.1453
787.521 23.8158
787.547 16.7531
787.573 12.3599
787.599 9.48092
787.651 6.06000
787.702 4.19620
787.754 3.07358
787.858 1.84958
787.962 1.23320
788.066 0.880287
788.170 0.659680
788.273 0.512689
788.481 0.335175
788.689 0.236170
788.896 0.175386
789.104 0.135429
789.519 0.0877835
789.934 0.0615623
790.764 0.0351776
791.595 0.0228319
792.425 0.0160794
794.085 0.00932321
797.407 0.00446114
800.728 0.00274757
807.370 0.00151552
814.013 0.00108064
827.297 0.000767695
840.582 0.000659841
867.152 0.000598824
893.722 0.000614952
920.291 0.000687597
946.861 0.000842423
973.430 0.00116517
1000.00 0.00193970
1017.65 0.00322578
1026.48 0.00452121
1035.31 0.00690650
1044.14 0.0120571
1048.55 0.0172323
1052.96 0.0267421
1055.17 0.0348156
1057.38 0.0472314
1059.58 0.0677658
1061.79 0.105385
1062.89 0.137260
1064.00 0.186106
1065.10 0.266686
1066.20 0.413520
1066.76 0.537314
1067.31 0.726311
1067.86 1.03581
1068.41 1.59370
1068.69 2.05978
1068.96 2.76449
1069.24 3.90335
1069.51 5.91190
1069.65 7.55940
1069.79 10.0026
1069.93 13.8478
1070.07 20.4059
1070.20 32.9511
1070.27 44.0031
1070.34 61.5735
1070.41 91.8001
1070.48 149.634
1070.51 200.721
1070.55 277.019
1070.58 397.808
1070.62 590.401
1070.66 941.667
1070.70 1174.59
1070.74 932.723
1070.79 583.443
1070.83 341.116
1070.88 213.835
1070.93 143.910
1070.97 102.581
1071.02 76.4807
1071.07 59.0694
1071.16 38.1405
1071.26 26.5839
1071.35 19.5607
1071.54 11.8683
1071.72 7.93801
1071.91 5.67797
1072.10 4.26104
1072.29 3.31906
1072.66 2.17198
1073.04 1.53232
1073.41 1.13867
1073.79 0.879333
1074.54 0.569425
1075.29 0.398814
1076.04 0.294751
1076.79 0.226800
1078.29 0.146181
1079.79 0.102092
1081.29 0.0753650
1082.80 0.0579497
1085.80 0.0373806
1088.80 0.0261655
1091.80 0.0193834
1094.80 0.0149726
1100.81 0.00977560
1106.81 0.00695104
1118.82 0.00415177
1130.83 0.00287826
1142.84 0.00221745
1166.86 0.00168545
1190.88 0.00174902
1214.90 0.00269194
1226.90 0.00419690
1232.91 0.00574273
1238.91 0.00860705
1244.92 0.0148114
1247.92 0.0210472
1250.92 0.0325050
1252.42 0.0422331
1253.93 0.0571758
1255.43 0.0818682
1256.93 0.127076
1257.68 0.165333
1258.43 0.223867
1259.18 0.320322
1259.93 0.495618
1260.31 0.643382
1260.68 0.867902
1261.06 1.23430
1261.43 1.89302
1261.62 2.44171
1261.81 3.26841
1261.99 4.59791
1262.18 6.92077
1262.28 8.81452
1262.37 11.6028
1262.46 15.9480
1262.56 23.1529
1262.65 36.7257
1262.70 48.3904
1262.74 66.4604
1262.79 96.4058
1262.84 150.513
1262.86 195.914
1262.89 259.070
1262.91 351.880
1262.93 487.793
1262.97 781.739
1263.00 968.966
1263.04 772.810
1263.07 480.819
1263.11 291.160
1263.14 189.289
1263.18 130.631
1263.21 94.7771
1263.25 71.0422
1263.28 55.4494
1263.35 36.3344
1263.42 25.4551
1263.49 18.8711
1263.63 11.5001
1263.78 7.72718
1263.92 5.54442
1264.06 4.17019
1264.20 3.25514
1264.48 2.13508
1264.76 1.50734
1265.04 1.12066
1265.32 0.866498
1265.89 0.561615
1266.45 0.393648
1267.02 0.291070
1267.58 0.224081
1268.71 0.144577
1269.83 0.101039
1270.96 0.0746397
1272.09 0.0574345
1274.34 0.0371152
1276.59 0.0260298
1281.10 0.0149647
1285.61 0.00982595
1290.12 0.00703088
1299.13 0.00425758
1308.15 0.00299171
1317.16 0.00233147
1335.20 0.00179103
1353.23 0.00183599
1362.24 0.00211317
1371.26 0.00273325
1380.27 0.00417619
1384.78 0.00565815
1389.29 0.00840064
1391.54 0.0107350
1393.80 0.0143280
1396.05 0.0202729
1398.30 0.0311711
1399.43 0.0403969
1400.56 0.0545474
1401.69 0.0778693
1402.81 0.120413
1403.38 0.156297
1403.94 0.210990
1404.50 0.300743
1405.07 0.462707
1405.35 0.598169
1405.63 0.803233
1405.91 1.13518
1406.05 1.38417
1406.19 1.72213
1406.33 2.20476
1406.48 2.92230
1406.55 3.42370
1406.62 4.05541
1406.69 4.87872
1406.76 5.97926
1406.83 7.52166
1406.90 9.70382
1406.97 13.0379
1407.04 18.3033
1407.07 22.3205
1407.11 27.6029
1407.14 34.9321
1407.18 45.4580
1407.21 61.1907
1407.25 85.7705
1407.28 125.811
1407.32 191.917
1407.36 308.575
1407.40 383.814
1407.44 305.523
1407.48 191.898
1407.52 124.348
1407.55 84.0185
1407.59 59.5529
1407.62 44.3802
1407.70 26.7365
1407.77 17.8261
1407.84 12.6349
1407.91 9.44228
1408.05 5.81533
1408.20 3.93307
1408.34 2.83456
1408.48 2.13877
1408.63 1.67067
1408.91 1.09982
1409.20 0.778345
1409.48 0.579678
1409.77 0.448407
1410.34 0.291217
1410.91 0.204287
1411.49 0.151228
1412.06 0.116534
1413.20 0.0752850
1414.34 0.0526822
1415.49 0.0389724
1416.63 0.0300425
1418.92 0.0194846
1421.21 0.0137270
1423.49 0.0102432
1425.78 0.00797788
1430.36 0.00530673
1434.93 0.00385199
1439.51 0.00297325
1444.08 0.00240233
1453.23 0.00173131
1462.38 0.00136911
1480.68 0.00102026
1498.98 0.000879671
1517.28 0.000832164
1553.88 0.000902425
1590.48 0.00122376
1627.08 0.00222863
1645.38 0.00363768
1654.53 0.00504790
1663.68 0.00763251
1668.25 0.00982328
1672.83 0.0131900
1677.40 0.0187571
1681.98 0.0289668
1684.27 0.0376201
1686.55 0.0509018
1688.84 0.0728383
1691.13 0.112935
1692.27 0.146817
1693.42 0.198678
1694.56 0.283912
1695.70 0.438559
1696.27 0.568372
1696.85 0.765711
1697.42 1.08699
1697.99 1.66123
1698.28 2.13685
1698.56 2.84993
1698.85 3.98904
1699.13 5.97424
1699.42 9.90274
1699.56 13.4921
1699.71 19.4260
1699.85 30.2463
1699.92 39.3877
1699.99 52.9925
1700.06 75.0519
1700.13 112.319
1700.21 181.044
1700.28 313.975
1700.34 501.422
1700.40 625.970
1700.46 498.153
1700.53 311.435
1700.59 183.703
1700.66 116.589
1700.73 78.7092
1700.80 56.4787
1700.86 42.1432
1700.93 32.6836
1701.06 21.2264
1701.20 14.8158
1701.33 10.9352
1701.60 6.63532
1701.87 4.44068
1702.14 3.18133
1702.41 2.39018
1702.68 1.86112
1703.22 1.21894
1703.76 0.860291
1704.30 0.639179
1704.83 0.493807
1705.91 0.320081
1706.99 0.224299
1708.06 0.165956
1709.14 0.127837
1711.29 0.0826273
1713.45 0.0578925
1715.60 0.0429100
1717.76 0.0331623
1722.06 0.0216774
1726.37 0.0154589
1730.68 0.0117524
1734.99 0.00941407
1743.60 0.00698502
1752.22 0.00673581
1756.52 0.00803807
1760.83 0.0127973
1762.98 0.0198111
1765.14 0.0399867
1766.22 0.0680254
1766.75 0.0959821
1767.29 0.146733
1767.83 0.254418
1768.10 0.360161
1768.37 0.549841
1768.50 0.707671
1768.64 0.942865
1768.77 1.32222
1768.91 1.98021
1769.04 3.29875
1769.11 4.50132
1769.18 6.49676
1769.24 10.2326
1769.28 13.4110
1769.31 18.1048
1769.35 25.9322
1769.38 39.1677
1769.41 65.1366
1769.45 115.947
1769.47 186.873
1769.50 231.916
1769.53 184.174
1769.56 115.949
1769.58 79.7045
1769.60 56.4163
1769.62 41.3883
1769.64 31.3928
1769.68 19.6039
1769.72 13.2995
1769.77 9.57905
1769.81 7.21408
1769.89 4.52490
1769.97 3.08365
1770.06 2.24217
1770.14 1.69777
1770.22 1.33357
1770.39 0.883246
1770.56 0.627968
1770.73 0.469483
1770.89 0.364410
1771.23 0.238152
1771.56 0.168082
1772.23 0.0970726
1772.90 0.0636203
1773.56 0.0452406
1774.90 0.0267660
1777.57 0.0133703
1780.24 0.00859226
1785.59 0.00508589
1790.93 0.00380355
1801.62 0.00285174
1812.31 0.00255258
1833.69 0.00262360
1855.06 0.00335348
1865.75 0.00408403
1876.44 0.00525796
1887.13 0.00724181
1897.81 0.0109121
1903.16 0.0140264
1908.50 0.0188006
1913.85 0.0266555
1919.19 0.0409361
1921.86 0.0529242
1924.54 0.0711601
1927.21 0.100877
1929.88 0.154197
1931.22 0.198383
1931.88 0.227983
1932.55 0.264750
1933.22 0.311198
1933.89 0.371041
1934.22 0.407653
1934.56 0.449961
1934.89 0.499208
1935.22 0.556993
1935.56 0.625406
1935.89 0.707211
1936.23 0.806131
1936.56 0.927271
1936.89 1.07778
1937.23 1.26791
1937.56 1.51277
1937.90 1.83533
1938.23 2.27187
1938.56 2.88216
1938.90 3.76993
1939.23 5.12682
1939.57 7.33375
1939.90 11.2145
1940.07 14.3070
1940.23 18.6914
1940.40 25.0093
1940.57 34.0714
1940.83 54.5497
1941.10 68.1241
1941.37 54.4490
1941.63 34.0531
1941.86 22.4133
1942.09 15.3276
1942.32 10.9598
1942.55 8.15528
1943.00 4.96265
1943.46 3.31234
1943.91 2.35954
1944.37 1.76293
1945.28 1.08857
1946.19 0.737411
1947.11 0.532029
1948.02 0.401752
1948.93 0.314016
1950.75 0.206909
1952.58 0.146533
1954.40 0.109199
1956.23 0.0845191
1959.87 0.0549563
1963.52 0.0386030
1967.17 0.0286203
1970.82 0.0220835
1978.11 0.0143284
1985.41 0.0100805
1992.71 0.00750640
2000.00 0.00583216
2016.49 0.00369786
2032.98 0.00267530
2041.22 0.00243390
2049.47 0.00249170
2057.71 0.00408833
2061.83 0.0111862
2062.87 0.0185356
2063.90 0.0392123
2064.41 0.0676423
2064.93 0.146151
2065.18 0.251795
2065.44 0.533194
2065.57 0.896420
2065.64 1.23876
2065.70 1.80909
2065.76 2.90517
2065.80 3.84535
2065.83 5.31575
2065.86 7.78700
2065.89 12.3522
2065.91 16.1766
2065.92 21.8627
2065.94 30.5587
2065.96 44.7368
2065.98 70.9998
2066.00 89.3716
2066.02 71.0003
2066.04 44.6342
2066.07 27.4262
2066.09 17.7109
2066.11 12.1579
2066.13 8.78531
2066.15 6.61436
2066.18 5.14592
2066.22 3.35624
2066.26 2.35474
2066.31 1.74073
2066.39 1.06559
2066.48 0.715336
2066.57 0.514892
2066.74 0.302495
2067.10 0.140694
2067.45 0.0814658
2068.15 0.0377401
2068.85 0.0220582
2071.65 0.00661884
2077.26 0.00260839
2082.86 0.00179648
2088.47 0.00146902
2099.68 0.00116710
2110.89 0.00100880
2155.74 0.000722790
2200.59 0.000628883
2245.44 0.000641215
2290.29 0.000791541
2312.72 0.000972412
2335.14 0.00131959
2357.57 0.00208049
2368.78 0.00284715
2379.99 0.00425647
2385.60 0.00545293
2391.21 0.00729271
2396.81 0.0103364
2402.42 0.0159201
2405.22 0.0206517
2408.02 0.0279169
2410.83 0.0399093
2413.63 0.0618333
2415.03 0.0803534
2416.43 0.108669
2417.84 0.155213
2419.24 0.239628
2419.94 0.310437
2420.64 0.418016
2421.34 0.593019
2422.04 0.905583
2422.39 1.16456
2422.74 1.55128
2423.09 2.16995
2423.44 3.24269
2423.79 5.36477
2423.97 7.29156
2424.14 10.4622
2424.32 16.2041
2424.41 21.0134
2424.49 28.1395
2424.58 39.5546
2424.67 58.6354
2424.76 93.7455
2424.84 159.631
2424.92 255.526
2425.00 319.490
2425.08 255.502
2425.16 159.615
2425.21 115.367
2425.26 85.5853
2425.36 50.5885
2425.47 32.7717
2425.57 22.7664
2425.67 16.6673
2425.78 12.7010
2425.98 8.06790
2426.19 5.55542
2426.39 4.05340
2426.80 2.42966
2427.22 1.61461
2427.63 1.15081
2428.04 0.861449
2428.45 0.668924
2429.27 0.436548
2430.10 0.307205
2430.92 0.227903
2431.74 0.175857
2433.39 0.113806
2435.03 0.0797020
2436.68 0.0589610
2438.32 0.0454148
2441.61 0.0293799
2444.90 0.0206169
2448.19 0.0153122
2451.48 0.0118612
2458.07 0.00779416
2464.65 0.00558582
2477.81 0.00340600
2490.97 0.00242737
2504.14 0.00193546
2530.46 0.00160149
2556.79 0.00182485
2569.95 0.00222554
2583.11 0.00304224
2589.69 0.00375870
2596.28 0.00487310
2602.86 0.00672794
2609.44 0.0101369
2612.73 0.0130252
2616.02 0.0174558
2619.31 0.0247573
2622.60 0.0380678
2624.25 0.0492867
2625.89 0.0664025
2627.54 0.0944275
2629.18 0.145068
2630.01 0.187363
2630.83 0.251358
2631.65 0.354881
2632.47 0.538343
2632.89 0.689064
2633.09 0.789323
2633.30 0.912461
2633.50 1.06761
2633.71 1.26476
2633.91 1.52323
2634.12 1.86744
2634.32 2.34487
2634.53 3.02994
2634.74 4.06124
2634.94 5.70271
2635.04 6.92220
2635.15 8.56701
2635.25 10.8521
2635.35 14.1006
2635.46 19.0024
2635.56 26.6747
2635.66 39.1983
2635.76 59.6542
2635.88 95.4831
2636.00 119.047
2636.12 95.1522
2636.24 59.3935
2636.37 34.2077
2636.51 21.2138
2636.65 14.1734
2636.78 10.0759
2636.92 7.48275
2637.05 5.76224
2637.32 3.71085
2637.60 2.57893
2637.87 1.89573
2638.41 1.14609
2638.95 0.765848
2639.49 0.547825
2640.04 0.410973
2640.58 0.319812
2641.67 0.209353
2642.75 0.147731
2643.84 0.109866
2644.92 0.0849562
2647.09 0.0552667
2649.26 0.0389654
2651.43 0.0290964
2653.60 0.0227195
2657.94 0.0155103
2662.28 0.0127284
2664.45 0.0133080
2666.62 0.0178623
2667.71 0.0252770
2668.79 0.0471149
2669.34 0.0776279
2669.88 0.162805
2670.15 0.278877
2670.42 0.593245
2670.56 1.00739
2670.63 1.40096
2670.69 2.06710
2670.76 3.37709
2670.80 4.55183
2670.83 6.45493
2670.86 9.82073
2670.88 12.5527
2670.90 16.5482
2670.91 22.6631
2670.93 32.5199
2670.95 49.2405
2670.96 75.9858
2670.98 121.575
2671.00 151.969
2671.02 121.576
2671.04 75.9866
2671.05 46.7631
2671.07 30.3981
2671.09 20.9661
2671.11 15.2020
2671.13 11.4747
2671.14 8.94484
2671.18 5.91355
2671.22 4.15024
2671.25 3.09298
2671.32 1.89345
2671.39 1.27678
2671.46 0.919016
2671.61 0.541937
2671.89 0.254467
2672.17 0.148593
2672.74 0.0703746
2673.31 0.0422044
2674.45 0.0215721
2675.58 0.0141108
2680.13 0.00625808
2684.67 0.00433617
2689.22 0.00341621
2698.31 0.00245379
2707.40 0.00193566
2725.58 0.00139716
2743.76 0.00114241
2780.13 0.000966287
2816.49 0.00101397
2852.86 0.00126226
