Pd-105(n,tot) ENDF/B-VII.1
Energy(eV) XS(b)
1.00000E-05 1059.26
1.25000E-05 948.204
1.50000E-05 866.226
2.00000E-05 751.156
2.75000E-05 641.666
3.50000E-05 569.608
4.25000E-05 517.589
5.00000E-05 477.765
6.25000E-05 428.099
7.50000E-05 391.438
0.000100000 339.976
0.000125000 304.857
0.000150000 278.933
0.000200000 242.544
0.000275000 207.920
0.000350000 185.133
0.000425000 168.683
0.000500000 156.089
0.000625000 140.383
0.000750000 128.789
0.00100000 112.514
0.00125000 101.408
0.00150000 93.2088
0.00200000 81.7002
0.00275000 70.7493
0.00350000 63.5418
0.00425000 58.3383
0.00500000 54.3545
0.00625000 49.3857
0.00750000 45.7175
0.0100000 40.5678
0.0125000 37.0526
0.0150000 34.4573
0.0200000 30.8131
0.0253000 28.1996
0.0314750 26.0309
0.0376500 24.4195
0.0500000 22.1434
0.0625000 20.5646
0.0750000 19.3977
0.100000 17.7566
0.125000 16.6335
0.150000 15.8021
0.200000 14.6302
0.275000 13.5069
0.350000 12.7605
0.500000 11.7959
0.750000 10.8657
1.00000 10.2922
1.50000 9.57932
2.00000 9.12721
2.75000 8.66736
3.50000 8.34319
5.00000 7.90260
7.50000 7.52314
8.75000 7.52379
9.37500 7.63144
10.0000 7.90785
10.4285 8.31943
10.8570 9.23002
11.0713 10.2080
11.2855 12.3221
11.3926 14.5957
11.4998 19.3511
11.5533 24.0481
11.6069 32.5014
11.6604 49.6075
11.6872 64.8629
11.7140 87.8038
11.7520 134.973
11.7900 166.939
11.8280 136.272
11.8660 89.7834
11.9059 59.0293
11.9457 42.4347
11.9855 33.2376
12.0254 27.8794
12.1051 22.6444
12.1848 20.7955
12.3441 21.4676
12.5035 26.2151
12.6629 37.1255
12.7426 47.2318
12.8223 63.6986
12.9019 92.7453
12.9816 150.118
13.0215 201.485
13.0613 282.917
13.1012 418.135
13.1410 646.720
13.1633 828.574
13.1855 1037.59
13.2300 1303.09
13.2745 1046.70
13.3190 658.065
13.3712 378.501
13.4234 236.314
13.4756 160.008
13.5278 115.595
13.5800 87.8113
13.6322 69.3961
13.7366 47.3653
13.8410 35.2317
13.9454 27.8536
14.1541 19.7097
14.3629 15.5387
14.5717 13.1101
14.7805 11.5658
14.9893 10.5185
15.4068 9.21979
15.8244 8.46596
16.6595 7.65027
17.4946 7.22614
18.3298 6.97016
20.0000 6.70027
21.2702 6.66286
21.9053 6.73592
22.5404 6.95012
23.1755 7.51895
23.4931 8.13574
23.8106 9.30115
23.9694 10.2967
24.1282 11.8197
24.2869 14.2988
24.4457 18.6951
24.6045 27.5384
24.6839 35.7049
24.7633 49.3001
24.8426 74.2579
24.8823 95.2591
24.9220 127.035
24.9617 177.952
25.0014 265.355
25.0213 333.353
25.0411 427.559
25.0610 559.759
25.0808 743.879
25.0981 953.373
25.1154 1193.82
25.1500 1500.01
25.1846 1209.09
25.2192 762.998
25.2569 456.335
25.2946 292.263
25.3323 200.868
25.3700 146.316
25.4077 111.578
25.4454 88.2558
25.5208 59.9933
25.5961 44.2286
25.6715 34.5641
25.8223 23.8160
25.9731 18.2763
26.1238 15.0413
26.2746 12.9823
26.4254 11.5871
26.7269 9.86319
27.0285 8.87242
27.3300 8.24807
27.6316 7.83011
28.2346 7.34227
28.8377 7.18235
29.1393 7.29247
29.2901 7.46325
29.4408 7.80633
29.5916 8.53711
29.6670 9.22147
29.7424 10.3572
29.8178 12.4107
29.8931 16.6094
29.9308 20.5002
29.9685 26.8831
30.0062 37.9762
30.0439 57.8087
30.0820 89.2526
30.1200 110.783
30.1581 90.5823
30.1961 59.4584
30.2280 41.8633
30.2599 30.9924
30.2918 24.2036
30.3237 19.7974
30.3875 14.7178
30.4513 12.0518
30.5151 10.4910
30.5789 9.50057
30.7065 8.35879
30.8341 7.74560
30.9617 7.37425
31.2169 6.95671
31.4722 6.73068
31.7274 6.58819
32.2378 6.41372
33.2586 6.22761
34.2795 6.11816
35.3003 6.04603
36.3211 6.01844
36.8316 6.04933
37.0868 6.09737
37.3420 6.19766
37.5972 6.42352
37.7248 6.64670
37.8524 7.03791
37.9800 7.80363
38.0438 8.48768
38.1076 9.58519
38.1714 11.4902
38.2352 15.1688
38.2671 18.3846
38.2990 23.3605
38.3309 31.3550
38.3628 44.3338
38.4014 67.9351
38.4400 84.0966
38.4786 68.9583
38.5172 45.6102
38.5484 32.7940
38.5795 24.7285
38.6107 19.6124
38.6418 16.2544
38.7041 12.3394
38.7664 10.2644
38.8288 9.04365
38.8911 8.26726
39.0157 7.37287
39.1403 6.89542
39.2649 6.60932
39.5142 6.29466
39.7634 6.13122
40.0126 6.03330
40.5111 5.92391
41.0096 5.86979
41.5081 5.85980
41.7573 5.88910
42.0065 5.99579
42.1312 6.13765
42.1935 6.26603
42.2558 6.47277
42.3181 6.83191
42.3804 7.52453
42.4116 8.12911
42.4427 9.06295
42.4739 10.5609
42.5050 12.9872
42.5425 17.3472
42.5800 20.2565
42.6175 17.3532
42.6550 12.9915
42.6837 10.7130
42.7124 9.24965
42.7411 8.30511
42.7698 7.67652
42.8272 6.93397
42.8845 6.53560
42.9419 6.29925
42.9993 6.14795
43.1141 5.97195
43.2288 5.87635
43.3436 5.81767
43.5731 5.74990
44.0322 5.68489
44.4913 5.64866
46.3275 5.56142
48.1638 5.50076
50.0000 5.47107
51.2830 5.51023
51.9245 5.58722
52.5661 5.76739
52.8868 5.93960
53.2076 6.22189
53.5283 6.71255
53.8491 7.64316
54.0095 8.44106
54.1698 9.66481
54.3302 11.6600
54.4906 15.1979
54.6510 22.2897
54.7312 28.7985
54.8114 39.5462
54.8915 58.9992
54.9316 75.1163
54.9717 99.1121
55.0118 136.700
55.0519 199.149
55.0720 246.224
55.0920 309.651
55.1121 395.833
55.1321 511.877
55.1516 657.085
55.1711 824.159
55.2100 1039.26
55.2295 983.205
55.2490 840.579
55.2879 532.412
55.3132 390.275
55.3385 292.077
55.3892 177.164
55.4398 118.122
55.4905 84.7024
55.5411 64.1729
55.5917 50.7299
55.6930 34.8185
55.7943 26.1281
55.8955 20.8642
56.0981 15.0605
56.3006 12.0821
56.5032 10.3412
56.7057 9.22915
56.9083 8.47144
57.3133 7.52595
57.7184 6.97288
58.1235 6.61616
58.5286 6.36926
59.3388 6.05158
60.1490 5.85536
61.7693 5.62001
63.3897 5.47807
65.0100 5.39448
65.8202 5.39560
66.2253 5.42806
66.6304 5.51475
67.0354 5.74039
67.2380 5.98295
67.4405 6.43643
67.6431 7.39722
67.7444 8.32062
67.8456 9.91264
67.9469 12.9721
67.9975 15.6608
68.0482 19.9037
68.0988 27.0991
68.1494 40.4988
68.1748 51.7843
68.2001 68.6131
68.2254 94.3966
68.2507 133.983
68.2680 170.987
68.2854 213.587
68.3200 268.624
68.3547 218.319
68.3893 139.896
68.4255 87.3564
68.4617 58.4259
68.4979 41.9484
68.5340 31.9528
68.5702 25.5098
68.6064 21.1427
68.6788 15.7937
68.7512 12.7752
68.8235 10.9068
68.9683 8.80554
69.1130 7.70686
69.2577 7.05643
69.5472 6.34831
69.8367 5.98404
70.1262 5.76721
70.7051 5.52413
71.2841 5.39147
71.8630 5.30851
73.0210 5.22506
74.1789 5.26266
74.7578 5.38261
75.3368 5.67995
75.6263 5.96998
75.9157 6.45013
76.2052 7.29105
76.4947 8.89475
76.6394 10.2732
76.7842 12.3888
76.9289 15.8361
77.0737 21.9338
77.2184 34.0811
77.2908 45.1421
77.3631 63.2357
77.4355 95.5032
77.4717 121.823
77.5079 160.399
77.5441 219.551
77.5802 314.943
77.6164 476.855
77.6526 757.836
77.6913 1224.78
77.7300 1548.83
77.7687 1255.43
77.8074 796.200
77.8420 522.393
77.8765 357.953
77.9110 257.635
77.9456 193.681
78.0147 121.188
78.0838 83.7428
78.1528 62.0454
78.2219 48.3822
78.3601 32.7817
78.4983 24.5222
78.6365 19.6053
78.7746 16.4286
78.9128 14.2493
79.1892 11.5168
79.4655 9.91719
79.7419 8.89016
80.0182 8.18549
80.5709 7.29630
81.1236 6.76900
82.2290 6.19919
83.3344 5.97850
83.8871 6.00755
84.4398 6.22723
84.7162 6.48162
84.9925 6.92799
85.2689 7.73822
85.5452 9.32040
85.6834 10.6977
85.8216 12.8279
85.9597 16.3257
86.0979 22.5628
86.2361 35.1123
86.3052 46.6432
86.3743 65.6687
86.4433 100.021
86.4779 128.381
86.5124 170.428
86.5470 235.889
86.5815 343.656
86.6161 531.811
86.6333 676.725
86.6506 870.160
86.6853 1407.08
86.7200 1780.22
86.7547 1443.56
86.7894 915.790
86.8152 643.149
86.8410 464.627
86.8668 347.482
86.8926 268.470
86.9442 173.761
86.9958 122.181
87.0474 91.2715
87.0990 71.3643
87.2022 48.1489
87.3055 35.6253
87.4087 28.0854
87.5119 23.1797
87.6151 19.7988
87.8215 15.5436
88.0279 13.0469
88.2343 11.4434
88.4407 10.3444
88.8536 8.96047
89.2664 8.14066
89.6792 7.60577
90.0921 7.23191
90.9177 6.74609
91.7434 6.44424
93.3947 6.08548
95.0460 5.87392
96.6974 5.73002
98.3487 5.62495
99.1743 5.58561
100.000 5.56686
100.254 5.57571
100.508 5.61339
100.634 5.66460
100.761 5.78560
100.825 5.91520
100.888 6.16485
100.920 6.38317
100.952 6.72164
100.983 7.26751
101.015 8.15819
101.053 9.73559
101.090 10.7890
101.128 9.74462
101.165 8.17559
101.194 7.34280
101.224 6.81684
101.253 6.48439
101.283 6.26979
101.341 6.03228
101.400 5.93331
101.459 5.92052
101.518 5.99909
101.576 6.24521
101.606 6.49700
101.635 6.90145
101.673 7.67283
101.710 8.18577
101.748 7.65707
101.785 6.86848
101.819 6.40308
101.852 6.12556
101.919 5.84910
101.986 5.72783
102.052 5.66666
102.186 5.61440
102.320 5.60131
102.587 5.63090
102.855 5.73502
103.122 5.99231
103.256 6.25461
103.389 6.72339
103.523 7.66017
103.590 8.51225
103.657 9.89770
103.724 12.3520
103.790 17.2088
103.824 21.5614
103.857 28.4607
103.891 39.8982
103.924 59.1929
103.962 93.0440
104.000 116.816
104.038 95.6150
104.076 62.3935
104.101 46.8226
104.126 36.1844
104.177 23.8201
104.227 17.4938
104.277 13.9296
104.327 11.7377
104.378 10.3043
104.478 8.60370
104.578 7.66960
104.679 7.10093
104.880 6.46724
105.081 6.13628
105.282 5.93895
105.683 5.71948
106.085 5.60154
106.487 5.52738
107.291 5.43619
108.898 5.33539
110.506 5.26956
113.720 5.17089
115.328 5.14031
115.730 5.14418
116.131 5.17328
116.332 5.21916
116.433 5.26405
116.533 5.34112
116.634 5.48724
116.684 5.61330
116.734 5.80863
116.784 6.13253
116.835 6.71416
116.885 7.87197
116.910 8.88108
116.935 10.3652
116.973 13.5309
117.010 15.6383
117.048 13.5315
117.085 10.3644
117.121 8.39486
117.157 7.26524
117.193 6.59973
117.228 6.18635
117.300 5.72967
117.372 5.50020
117.443 5.36921
117.515 5.28763
117.658 5.19473
117.801 5.14492
117.945 5.11432
118.231 5.07825
118.804 5.04078
119.377 5.01683
120.523 4.97920
121.670 4.94750
122.816 4.92680
123.389 4.92888
123.962 4.95500
124.535 5.04825
124.821 5.16123
125.108 5.38710
125.251 5.58627
125.395 5.89644
125.538 6.40832
125.681 7.32313
125.824 9.16507
125.896 10.8522
125.968 13.6241
126.039 18.5989
126.111 28.6430
126.147 37.8306
126.182 52.6942
126.218 78.0004
126.254 122.033
126.273 155.752
126.292 194.562
126.330 245.072
126.369 199.529
126.407 127.927
126.439 87.5596
126.471 62.5116
126.503 46.8083
126.535 36.5794
126.600 24.7351
126.664 18.4862
126.728 14.8143
126.792 12.4781
126.921 9.78328
127.049 8.33877
127.177 7.47110
127.434 6.51615
127.691 6.02188
127.948 5.72869
128.461 5.40522
128.975 5.23655
129.488 5.14450
129.745 5.12671
130.002 5.15199
130.130 5.20979
130.258 5.36439
130.323 5.53792
130.387 5.88062
130.419 6.18443
130.451 6.65966
130.483 7.43284
130.515 8.70006
130.553 10.9301
130.590 12.4154
130.628 10.9246
130.665 8.68780
130.692 7.59154
130.718 6.86407
130.771 6.04733
130.824 5.64422
130.876 5.42112
130.982 5.19684
131.088 5.09063
131.299 4.99175
131.510 4.94417
131.933 4.89430
132.355 4.86880
132.778 4.86385
133.200 4.90586
133.411 4.98187
133.517 5.05805
133.623 5.19058
133.728 5.44470
133.781 5.66590
133.834 6.01153
133.887 6.58955
133.939 7.64594
133.966 8.51979
133.992 9.80201
134.019 11.7283
134.045 14.6210
134.083 20.5442
134.120 24.4889
134.158 20.5444
134.195 14.6187
134.229 11.1157
134.262 9.03054
134.296 7.76865
134.329 6.96930
134.397 6.07063
134.464 5.61080
134.531 5.34639
134.598 5.18084
134.733 4.99292
135.001 4.83530
135.270 4.77490
135.539 4.75673
135.808 4.78786
135.942 4.84873
136.076 5.00581
136.144 5.18098
136.211 5.52902
136.244 5.84090
136.278 6.33502
136.312 7.15363
136.345 8.52623
136.383 10.8574
136.420 12.4110
136.458 10.8560
136.495 8.52169
136.531 7.05951
136.568 6.22627
136.604 5.73767
136.640 5.43509
136.712 5.10154
136.785 4.93409
136.930 4.77905
137.075 4.71180
137.654 4.64091
138.234 4.66351
138.813 4.77712
139.393 5.11154
139.682 5.48964
139.972 6.21961
140.117 6.85054
140.262 7.82100
140.407 9.40408
140.552 12.2019
140.696 17.7709
140.769 22.8363
140.841 31.0915
140.914 45.7817
140.986 75.1084
141.022 101.648
141.059 144.142
141.095 215.529
141.131 337.742
141.171 542.955
141.210 684.770
141.250 556.652
141.289 354.922
141.324 236.065
141.358 163.659
141.393 119.017
141.427 90.3906
141.496 57.6238
141.565 40.5679
141.634 30.6283
141.703 24.3595
141.840 17.1780
141.978 13.3613
142.116 11.0852
142.392 8.59733
142.667 7.32111
142.943 6.56980
143.494 5.74836
144.046 5.32183
144.597 5.07129
145.700 4.85076
146.251 4.86552
146.802 5.00860
147.354 5.38997
147.905 6.29478
148.181 7.16151
148.456 8.58064
148.732 11.0401
149.007 15.6676
149.145 19.5998
149.283 25.5606
149.421 35.1196
149.559 51.6448
149.628 64.7458
149.697 83.4405
149.766 111.299
149.834 155.076
149.903 228.710
149.972 363.933
150.007 476.223
150.041 640.569
150.076 888.065
150.110 1258.47
150.160 2042.88
150.210 2593.96
150.260 2114.14
150.310 1347.87
150.346 956.172
150.383 696.225
150.419 523.769
150.456 406.692
150.528 264.725
150.601 186.569
150.674 139.375
150.746 108.786
150.892 72.8686
151.037 53.3356
151.183 41.4972
151.328 33.7503
151.473 28.3837
151.764 21.5877
152.055 17.5720
152.346 14.9821
152.637 13.2072
153.218 11.0197
153.800 9.96484
154.091 9.93008
154.236 10.1755
154.381 10.8011
154.527 12.2756
154.600 13.7098
154.672 16.1287
154.745 20.5405
154.818 29.5713
154.854 37.9079
154.890 51.4306
154.927 74.6711
154.963 115.357
155.002 183.131
155.040 231.014
155.079 189.159
155.117 122.826
155.146 88.3683
155.175 65.8977
155.203 51.1467
155.232 41.1868
155.289 29.2203
155.347 22.6697
155.404 18.7199
155.462 16.1558
155.576 13.1254
155.691 11.4518
155.806 10.4151
156.036 9.22073
156.265 8.56033
156.495 8.14613
156.954 7.69086
157.413 7.59981
157.643 7.75506
157.873 8.20011
158.102 9.33342
158.217 10.5050
158.332 12.5998
158.447 16.7414
158.504 20.4413
158.561 26.3403
158.619 36.4326
158.676 55.3770
158.705 71.4024
158.734 95.3604
158.762 132.140
158.791 188.736
158.811 242.213
158.831 303.807
158.870 385.704
158.910 316.998
158.949 205.251
158.986 135.748
159.022 94.5222
159.059 69.5170
159.095 53.6997
159.168 35.8038
159.241 26.5594
159.315 21.1853
159.388 17.7823
159.534 13.8586
159.680 11.7428
159.826 10.4574
160.118 9.01141
160.411 8.23372
160.703 7.75153
161.288 7.18129
161.873 6.84734
162.457 6.62114
163.627 6.32160
164.796 6.12386
165.965 5.98975
166.550 5.95719
166.842 5.96247
167.135 6.00229
167.427 6.12762
167.573 6.26785
167.719 6.53010
167.866 7.07473
167.939 7.58226
168.012 8.42351
168.085 9.94811
168.158 13.0678
168.195 15.9586
168.231 20.6740
168.268 28.8171
168.304 43.2607
168.342 67.0270
168.380 83.8775
168.418 69.2548
168.456 46.0337
168.490 32.0240
168.525 23.6596
168.559 18.5802
168.594 15.3562
168.662 11.6970
168.731 9.80315
168.800 8.70069
168.868 8.00439
169.006 7.20293
169.143 6.77307
169.281 6.51435
169.556 6.23107
169.830 6.09818
170.105 6.07089
170.243 6.12451
170.380 6.30674
170.449 6.52507
170.518 6.97144
170.552 7.37846
170.586 8.02826
170.621 9.12056
170.655 10.9767
170.693 14.0717
170.730 16.1305
170.768 14.0608
170.805 10.9536
170.831 9.47173
170.856 8.47375
170.907 7.33189
170.958 6.75883
171.009 6.43867
171.111 6.11308
171.214 5.95738
171.418 5.81115
171.622 5.73982
172.030 5.66174
172.439 5.61227
174.072 5.48244
175.706 5.38362
177.340 5.29603
178.973 5.22275
179.790 5.20277
180.607 5.21908
181.015 5.25952
181.424 5.34677
181.832 5.52781
182.240 5.91752
182.445 6.27611
182.649 6.85035
182.853 7.82399
183.057 9.61443
183.261 13.3294
183.364 16.8214
183.466 22.6902
183.568 33.5181
183.619 42.6359
183.670 56.3562
183.721 78.2019
183.772 115.093
183.798 143.454
183.823 182.054
183.849 235.257
183.874 308.096
183.922 501.147
183.970 638.850
184.018 521.364
184.066 333.310
184.097 246.061
184.128 185.745
184.191 114.742
184.253 77.9275
184.315 56.9761
184.377 44.0024
184.440 35.4657
184.564 25.2660
184.689 19.6305
184.813 16.1784
185.062 12.3163
185.311 10.2928
185.560 9.08737
185.809 8.30334
186.058 7.76008
186.556 7.06604
187.054 6.64754
187.552 6.36987
188.050 6.17255
189.045 5.90968
190.041 5.73994
192.033 5.52405
194.025 5.37984
196.017 5.26456
197.012 5.21270
198.008 5.16568
199.004 5.13210
199.502 5.12973
200.000 5.15235
200.319 5.19398
200.637 5.27835
200.956 5.44767
201.274 5.80440
201.433 6.12889
201.593 6.64413
201.752 7.51129
201.911 9.09032
202.070 12.3300
202.150 15.3388
202.230 20.3368
202.309 29.4194
202.349 36.9248
202.389 48.0573
202.429 65.3611
202.468 93.7570
202.508 143.020
202.528 180.724
202.548 230.822
202.589 373.835
202.630 475.643
202.671 389.585
202.712 250.523
202.756 154.879
202.799 102.413
202.843 72.6209
202.887 54.5558
202.931 42.9058
202.974 34.9936
203.062 25.2704
203.149 19.7512
203.236 16.3128
203.411 12.4102
203.586 10.3437
203.761 9.10628
203.936 8.29992
204.110 7.74130
204.460 7.02918
204.809 6.60241
205.159 6.32157
205.509 6.12420
206.208 5.86653
206.907 5.70797
207.606 5.61516
207.781 5.61021
207.956 5.63276
208.043 5.67272
208.130 5.76856
208.174 5.86562
208.218 6.03600
208.261 6.35730
208.305 6.98947
208.343 7.87643
208.380 8.46631
208.418 7.86912
208.455 6.97457
208.484 6.50396
208.513 6.20254
208.570 5.87653
208.628 5.72059
208.686 5.63502
208.801 5.54713
208.916 5.50253
209.147 5.45433
209.378 5.42474
210.300 5.34959
212.145 5.25054
213.990 5.18222
214.451 5.17357
214.913 5.18003
215.143 5.20183
215.259 5.22583
215.374 5.26938
215.489 5.35562
215.547 5.43249
215.604 5.55447
215.662 5.76321
215.720 6.15531
215.749 6.49031
215.777 6.99380
215.806 7.77595
215.835 8.99599
215.873 11.3249
215.910 12.8753
215.948 11.3236
215.985 8.99238
216.027 7.37250
216.069 6.52228
216.110 6.05353
216.152 5.77673
216.194 5.60106
216.236 5.48374
216.319 5.34146
216.403 5.26168
216.486 5.21212
216.653 5.15517
216.987 5.10298
217.321 5.07626
217.989 5.04247
218.657 5.01629
219.992 4.96931
221.328 4.92440
222.664 4.88429
223.332 4.87212
224.000 4.87830
224.334 4.89790
224.667 4.94149
225.001 5.03322
225.335 5.23191
225.502 5.41520
225.669 5.70894
225.836 6.20715
226.003 7.12243
226.170 9.02125
226.254 10.8049
226.337 13.7957
226.421 19.3125
226.462 23.9540
226.504 30.9278
226.546 42.0205
226.588 60.7063
226.629 94.4295
226.650 121.258
226.671 157.726
226.691 202.883
226.711 255.070
226.750 324.460
226.790 265.215
226.829 170.377
226.853 128.780
226.877 99.3200
226.925 63.5424
226.973 44.3803
227.020 33.2515
227.068 26.2601
227.116 21.6170
227.212 16.0205
227.307 12.8980
227.403 10.9757
227.594 8.81625
227.786 7.68103
227.977 7.00387
228.169 6.56272
228.360 6.25681
228.743 5.86548
229.125 5.62879
229.508 5.47107
229.891 5.35833
230.656 5.20638
231.421 5.10613
232.952 4.97365
234.483 4.88016
236.014 4.80208
239.075 4.65775
242.137 4.50146
243.668 4.41117
245.198 4.30977
246.729 4.20050
247.494 4.15054
248.260 4.12007
249.025 4.15322
249.408 4.23300
249.791 4.41451
250.173 4.83059
250.365 5.23522
250.556 5.92811
250.747 7.25489
250.843 8.43355
250.939 10.3433
251.034 13.7817
251.130 20.9832
251.178 27.9856
251.226 40.1642
251.250 49.7997
251.273 63.3827
251.297 82.8372
251.321 110.601
251.341 140.899
251.361 175.967
251.400 222.405
251.420 211.961
251.439 183.335
251.479 120.448
251.508 88.3528
251.536 67.2700
251.594 44.3733
251.651 33.9228
251.709 29.0542
251.824 27.2026
251.939 32.1111
252.054 45.5376
252.112 58.0446
252.169 77.8962
252.227 111.109
252.284 170.912
252.313 219.424
252.342 288.726
252.370 390.103
252.399 536.785
252.445 871.118
252.490 1108.51
252.536 908.520
252.581 583.517
252.610 435.462
252.638 331.010
252.695 205.877
252.753 139.698
252.810 101.549
