Pd-108(n,tot) ENDF/B-VII.1
Energy(eV) XS(b)
1.00000E-05 428.232
1.25000E-05 383.280
1.50000E-05 350.097
2.00000E-05 303.518
2.75000E-05 259.199
3.50000E-05 230.032
4.25000E-05 208.976
5.00000E-05 192.856
6.25000E-05 172.752
7.50000E-05 157.912
0.000100000 137.082
0.000125000 122.867
0.000150000 112.374
0.000200000 97.6444
0.000275000 83.6296
0.000350000 74.4062
0.000425000 67.7478
0.000500000 62.6504
0.000625000 56.2933
0.000750000 51.6007
0.00100000 45.0138
0.00125000 40.5188
0.00150000 37.2008
0.00200000 32.5434
0.00275000 28.1121
0.00350000 25.1958
0.00425000 23.0906
0.00500000 21.4791
0.00625000 19.4693
0.00750000 17.9859
0.0100000 15.9038
0.0125000 14.4831
0.0150000 13.4345
0.0200000 11.9628
0.0253000 10.9081
0.0314750 10.0336
0.0376500 9.38432
0.0500000 8.46836
0.0625000 7.83410
0.0750000 7.36609
0.100000 6.70949
0.125000 6.26168
0.150000 5.93129
0.200000 5.46782
0.275000 5.02713
0.350000 4.73723
0.500000 4.36776
0.750000 4.02035
1.00000 3.81362
1.50000 3.57544
2.00000 3.47318
2.22853 3.49184
2.45705 3.64496
2.57131 3.88257
2.68558 4.50555
2.74271 5.24260
2.79984 6.84093
2.82840 8.42035
2.85697 11.2032
2.88554 16.5682
2.89982 21.0998
2.91410 27.5969
2.93705 42.3939
2.96000 52.3858
2.98295 42.6915
3.00590 27.9633
3.02148 20.9616
3.03706 16.2198
3.06822 10.8016
3.09937 8.08554
3.13053 6.57287
3.19285 5.05701
3.25516 4.35475
3.37979 3.73966
3.50443 3.47907
3.75369 3.25304
4.00295 3.14816
5.00000 2.96209
7.50000 2.72541
10.0000 2.54566
15.0000 2.25917
17.5000 2.18262
20.0000 2.23342
21.6243 2.41961
22.4364 2.59758
23.2485 2.86495
23.6546 3.04416
23.8576 3.14797
24.0606 3.26258
24.1622 3.32430
24.2637 3.38916
24.3652 3.45735
24.4667 3.52903
24.5682 3.60441
24.6697 3.68368
24.7712 3.76706
24.8728 3.85478
24.9743 3.94710
25.0758 4.04428
25.2788 4.25434
25.4819 4.48748
25.6849 4.74657
26.0909 5.35643
26.4970 6.11728
26.9031 7.07451
27.3091 8.29085
27.7152 9.85503
28.1213 11.8952
28.5273 14.6019
28.9334 18.2667
29.3394 23.3536
29.7455 30.6342
30.1516 41.4647
30.5576 58.3977
30.9637 86.6923
31.3698 138.580
31.5728 182.123
31.7758 247.942
31.9789 353.708
32.1819 538.454
32.2834 686.854
32.3849 902.458
32.4864 1231.80
32.5879 1768.59
32.6895 2723.95
32.7402 3502.91
32.7910 4645.67
32.8417 6401.55
32.8925 9245.14
32.9433 14101.9
32.9940 22593.0
33.0470 36328.6
33.1000 45633.2
33.1530 36754.4
33.2060 23151.0
33.2388 17135.4
33.2716 12905.9
33.3372 7846.98
33.4028 5190.12
33.4684 3665.51
33.5340 2721.08
33.5996 2099.33
33.7308 1360.37
33.8620 955.724
33.9932 710.579
34.2556 440.855
34.5180 303.145
34.7804 223.186
35.0429 172.490
35.3053 138.235
35.8301 96.0333
36.3549 71.8349
36.8797 56.5693
37.4045 46.2595
38.4541 33.5106
39.5038 26.1272
40.5534 21.4081
41.6030 18.1736
43.7023 14.0803
45.8015 11.6244
47.9008 9.99255
50.0000 8.82483
55.0811 6.97874
60.1621 5.77741
65.2432 4.82660
70.3243 3.94680
72.8648 3.50231
75.4053 3.05275
77.9459 2.62652
80.4864 2.34384
81.7567 2.37357
82.3918 2.48201
83.0269 2.69266
83.3445 2.85108
83.5033 2.94705
83.6621 3.05585
83.8208 3.17895
83.9796 3.31797
84.1384 3.47478
84.2972 3.65150
84.4560 3.85055
84.6148 4.07465
84.7735 4.32697
84.9323 4.61115
85.2499 5.29249
85.5674 6.16076
85.8850 7.27343
86.2026 8.70994
86.5202 10.5825
86.8377 13.0532
87.1553 16.3621
87.4728 20.8756
87.7904 27.1738
88.1080 36.2130
88.4255 49.6568
88.7431 70.5891
89.0607 105.225
89.3782 167.549
89.5370 218.729
89.6958 294.338
89.8546 411.954
90.0134 607.762
90.1722 965.440
90.2516 1263.91
90.3309 1711.11
90.4103 2416.48
90.4897 3599.18
90.5691 5716.17
90.6485 9646.36
90.7243 15663.2
90.8000 19861.7
90.8758 16117.8
90.9515 10221.3
91.0222 6576.76
91.0929 4434.57
91.1636 3150.64
91.2343 2342.11
91.3757 1436.34
91.5170 973.154
91.6584 706.264
91.7998 538.721
92.0826 347.777
92.3653 246.743
92.6481 186.547
92.9309 147.603
93.2136 120.841
93.7792 87.2076
94.3447 67.4605
94.9102 54.7530
95.4758 46.0209
96.6068 34.9899
97.7379 28.4348
98.8689 24.1541
100.000 21.1664
101.580 18.2613
103.161 16.2436
106.322 13.6456
109.482 12.0899
110.273 11.8294
111.063 11.6816
111.458 11.7305
111.655 11.8426
111.853 12.0922
112.051 12.6671
112.149 13.2369
112.248 14.2326
112.347 16.1774
112.396 17.9125
112.446 20.6900
112.495 25.5305
112.544 34.9417
112.569 43.2437
112.594 56.2219
112.618 77.3682
112.643 112.078
112.672 172.369
112.700 212.412
112.729 172.394
112.757 112.097
112.775 84.8383
112.793 65.9318
112.830 43.7522
112.866 32.3049
112.902 25.8170
112.939 21.8265
112.975 19.2259
113.048 16.1567
113.120 14.4851
113.193 13.4765
113.338 12.3628
113.484 11.7852
113.629 11.4392
113.919 11.0445
114.210 10.8176
114.500 10.6610
115.082 10.4378
116.244 10.1226
117.406 9.87240
122.055 9.12121
126.704 8.58606
131.353 8.17878
140.650 7.59412
145.299 7.37619
147.624 7.28328
148.205 7.26396
148.786 7.25153
149.076 7.25396
149.222 7.26153
149.367 7.27904
149.512 7.31981
149.585 7.36006
149.658 7.42957
149.730 7.56236
149.767 7.67765
149.803 7.85750
149.839 8.15768
149.875 8.70486
149.894 9.15783
149.912 9.81726
149.930 10.8107
149.948 12.2897
149.974 15.3484
150.000 17.3874
150.026 15.3481
150.052 12.2878
150.076 10.4158
150.101 9.32920
150.125 8.68469
150.150 8.28239
150.198 7.83637
150.247 7.61095
150.296 7.48218
150.345 7.40177
150.442 7.31033
150.540 7.26140
150.637 7.23151
150.833 7.19661
151.223 7.16137
151.613 7.13973
153.174 7.07827
156.296 6.97618
162.539 6.79955
175.026 6.51763
200.000 6.12050
225.787 5.82978
251.574 5.59549
277.361 5.38417
283.808 5.33260
290.255 5.28234
293.478 5.25946
295.090 5.24993
296.701 5.24370
298.313 5.24589
299.119 5.25489
299.925 5.27703
300.328 5.29810
300.731 5.33212
301.134 5.39016
301.536 5.49813
301.738 5.58966
301.939 5.72926
302.141 5.95689
302.342 6.36363
302.443 6.69919
302.544 7.19960
302.644 7.99358
302.745 9.36315
302.846 12.0325
302.896 14.4295
302.947 18.3083
302.997 25.1930
303.022 30.7941
303.047 38.9662
303.073 51.5578
303.098 71.9662
303.123 106.906
303.148 167.920
303.174 265.702
303.200 330.950
303.226 265.727
303.252 167.952
303.279 104.434
303.305 69.2669
303.332 49.1745
303.358 36.9716
303.385 29.1154
303.411 23.8005
303.464 17.3211
303.517 13.6940
303.570 11.4695
303.676 9.00473
303.782 7.74228
303.888 7.01254
303.994 6.55245
304.100 6.24433
304.312 5.86935
304.524 5.65832
304.735 5.52757
304.947 5.44072
305.371 5.33543
305.795 5.27562
306.219 5.23768
306.643 5.21154
307.490 5.17744
308.338 5.15529
310.033 5.12538
311.728 5.10305
313.424 5.08363
316.814 5.04789
323.595 4.97837
330.376 4.90603
343.938 4.74375
357.500 4.54400
371.062 4.27984
384.624 3.89578
391.405 3.62250
398.186 3.25478
401.576 3.01813
404.967 2.73226
408.357 2.38655
410.052 2.20846
410.476 2.18214
410.900 2.20438
411.112 2.27946
411.218 2.36389
411.324 2.52028
411.430 2.84018
411.483 3.13456
411.536 3.61786
411.589 4.48747
411.642 6.25998
411.668 7.90226
411.695 10.6030
411.721 15.3180
411.748 23.7587
411.774 36.8665
411.800 45.6126
411.826 36.8615
411.852 23.7468
411.883 14.4183
411.913 9.63590
411.943 7.05584
411.974 5.54908
412.004 4.60469
412.034 3.97750
412.095 3.22516
412.155 2.80847
412.216 2.55284
412.337 2.26501
412.458 2.11043
412.580 2.01394
412.822 1.89564
413.307 1.75963
413.791 1.66117
415.730 1.32400
417.669 1.02147
419.607 0.873430
420.092 0.902327
420.334 0.934650
420.577 0.982057
420.819 1.04762
421.061 1.13499
421.304 1.24873
421.546 1.39443
421.788 1.57913
422.031 1.81138
422.273 2.10234
422.515 2.46571
423.000 3.48717
423.485 5.09466
423.969 7.67878
424.454 11.9779
424.939 19.5099
425.181 25.4294
425.423 33.7501
425.666 45.8182
425.908 63.9986
426.150 92.8140
426.393 141.561
426.635 231.907
426.756 307.926
426.877 422.206
426.999 603.067
427.120 906.097
427.241 1447.30
427.362 2445.76
427.481 4033.54
427.600 5193.32
427.719 4274.33
427.838 2747.29
427.942 1834.36
428.047 1275.80
428.151 929.530
428.255 705.681
428.464 447.827
428.673 312.142
428.881 232.212
429.090 181.171
429.507 121.798
429.924 89.5995
430.342 70.0163
430.759 57.1146
431.176 48.1033
432.011 36.5343
432.845 29.5615
433.680 24.9695
434.514 21.7486
436.183 17.5743
437.852 15.0163
439.522 13.3022
441.191 12.0795
444.529 10.4582
447.867 9.43529
451.205 8.73166
454.543 8.21749
461.219 7.51360
467.895 7.05026
474.572 6.71891
476.241 6.65085
477.910 6.58983
478.744 6.56452
479.579 6.55064
479.996 6.55809
480.205 6.57253
480.413 6.60407
480.622 6.67658
480.726 6.74877
480.831 6.87613
480.935 7.12815
480.987 7.35676
481.039 7.72913
481.091 8.39492
481.118 8.94009
481.144 9.74032
481.170 10.9826
481.196 13.0167
481.222 16.5486
481.248 22.8279
481.274 32.6607
481.300 39.2219
481.326 32.6604
481.352 22.8263
481.371 18.0470
481.389 14.8753
481.407 12.7568
481.425 11.3083
481.462 9.54993
481.498 8.58226
481.534 7.99879
481.571 7.62385
481.644 7.18742
481.717 6.95291
481.789 6.81272
481.935 6.65933
482.081 6.58054
482.226 6.53369
482.518 6.48065
482.809 6.45031
483.101 6.42936
483.683 6.39917
484.849 6.35471
486.014 6.31702
490.676 6.18619
500.000 5.96883
511.237 5.75260
522.473 5.56479
528.092 5.47728
533.710 5.39363
536.519 5.35488
537.924 5.33770
539.328 5.32415
540.733 5.31978
541.435 5.32617
542.138 5.34675
542.489 5.36780
542.840 5.40279
543.191 5.46355
543.542 5.57767
543.718 5.67470
543.893 5.82278
544.069 6.06370
544.244 6.49228
544.332 6.84385
544.420 7.36581
544.508 8.18789
544.596 9.58845
544.683 12.2697
544.727 14.6312
544.771 18.3841
544.815 24.8375
544.859 37.1803
544.881 47.9221
544.903 64.3724
544.925 90.6016
544.947 132.808
544.973 209.382
545.000 260.442
545.027 209.398
545.053 132.828
545.076 90.1689
545.098 63.8307
545.120 47.4024
545.142 36.7590
545.187 24.5340
545.231 18.1713
545.275 14.4671
545.320 12.1390
545.408 9.49995
545.497 8.11856
545.586 7.30910
545.675 6.79367
545.763 6.44605
545.941 6.01973
546.118 5.77785
546.296 5.62704
546.473 5.52631
546.828 5.40328
547.183 5.33263
547.538 5.28727
547.893 5.25559
548.603 5.21335
549.313 5.18503
550.733 5.14515
552.153 5.11412
553.573 5.08645
556.413 5.03459
562.093 4.93214
567.773 4.82421
579.133 4.57585
590.492 4.25256
596.172 4.04338
601.852 3.78378
607.532 3.44869
613.212 2.99526
616.052 2.70238
618.892 2.34831
621.731 1.91815
624.571 1.40826
625.991 1.13922
627.411 0.899413
628.121 0.815668
628.831 0.784112
629.186 0.799585
629.541 0.845320
629.896 0.931482
630.251 1.07189
630.606 1.28577
630.784 1.42826
630.961 1.59999
631.316 2.05293
631.671 2.70057
632.026 3.62639
632.381 4.95848
632.736 6.89977
633.091 9.78364
633.446 14.1892
633.801 21.1736
634.156 32.8239
634.511 53.6760
634.689 70.5431
634.866 94.9697
635.044 131.805
635.221 190.258
635.399 289.263
635.576 471.546
635.665 622.484
635.754 842.914
635.842 1171.80
635.931 1662.18
636.066 2758.60
636.200 3574.75
636.335 2964.42
636.469 1919.93
636.573 1348.18
636.678 975.556
636.782 732.254
636.887 568.712
637.095 372.536
637.304 265.144
637.513 200.272
637.721 158.070
638.139 108.101
638.556 80.5304
638.974 63.5571
639.391 52.2737
639.808 44.3363
640.643 34.0762
641.478 27.8700
641.895 25.6624
642.313 23.9412
642.521 23.3248
642.730 23.1022
642.835 23.4061
642.887 23.8273
642.939 24.6221
642.991 26.1735
643.043 29.4793
643.069 32.5895
643.095 37.7221
643.122 46.6637
643.148 62.5556
643.174 87.6050
643.200 104.188
643.226 87.3571
643.253 62.2580
643.272 49.6298
643.291 41.3192
643.310 35.8361
643.329 32.1336
643.367 27.6391
643.405 25.1498
643.443 23.6247
643.481 22.6123
643.557 21.3614
643.634 20.6077
643.710 20.0876
643.862 19.3676
644.167 18.4131
644.472 17.6933
645.082 16.5374
645.692 15.5979
646.911 14.1236
648.131 13.0111
650.570 11.4419
653.008 10.3897
657.886 9.06919
662.764 8.27283
667.642 7.73762
672.520 7.35069
682.276 6.82164
692.032 6.46832
701.788 6.20774
721.299 5.82835
740.811 5.53928
760.323 5.28529
770.079 5.16183
779.835 5.03717
784.713 4.97411
789.590 4.91188
792.029 4.88334
793.249 4.87143
794.468 4.86363
795.688 4.86637
796.298 4.87764
796.907 4.90527
797.212 4.93149
797.517 4.97374
797.822 5.04555
798.127 5.17831
798.279 5.29024
798.432 5.45993
798.584 5.73419
798.737 6.21860
798.813 6.61359
798.889 7.19552
798.965 8.10405
799.041 9.63523
799.118 12.5096
799.156 14.9915
799.194 18.8552
799.232 25.3044
799.270 37.0895
799.289 46.8797
799.308 61.1918
799.327 82.8583
799.346 115.316
799.373 181.675
799.400 225.929
799.427 181.691
799.454 115.336
799.476 78.4576
799.498 55.7366
799.521 41.5198
799.543 32.2862
799.587 21.6369
799.632 16.0872
799.676 12.8539
799.721 10.8243
799.809 8.51828
799.898 7.31007
799.987 6.60164
800.076 6.15033
800.165 5.84583
800.342 5.47220
800.520 5.26006
800.698 5.12770
800.876 5.03922
801.231 4.93096
801.586 4.86863
801.942 4.82846
802.297 4.80029
803.008 4.76244
803.719 4.73677
805.141 4.70006
806.562 4.67103
807.984 4.64486
810.827 4.59537
816.514 4.49694
822.201 4.39356
833.574 4.16237
839.261 4.03238
840.683 3.99978
842.104 3.97120
842.815 3.96329
843.526 3.97403
843.881 4.00442
844.059 4.03847
844.237 4.10254
844.415 4.23783
844.503 4.36743
844.592 4.59033
844.681 5.02072
844.726 5.40164
844.770 6.00990
844.814 7.06548
844.859 9.09986
844.881 10.8824
844.903 13.6510
844.925 18.1261
844.948 25.4458
844.974 38.4030
845.000 47.0503
845.026 38.4081
845.052 25.4511
845.082 16.3634
845.112 11.6456
845.142 9.07800
845.171 7.57029
845.201 6.62240
845.231 5.99205
845.290 5.23640
845.349 4.81984
845.409 4.56663
845.528 4.28738
845.646 4.14431
845.765 4.06068
846.003 3.97013
846.478 3.89334
846.953 3.85665
847.903 3.81218
848.854 3.77807
850.754 3.71581
852.655 3.65383
860.257 3.37987
867.859 3.04196
875.462 2.60614
879.263 2.33484
883.064 2.01460
886.865 1.63259
890.666 1.17998
892.567 0.933064
894.468 0.692207
896.368 0.510323
896.843 0.488260
897.319 0.482842
897.794 0.500021
898.269 0.547966
898.744 0.638051
899.219 0.786249
899.694 1.01561
900.169 1.35971
900.645 1.86918
901.120 2.62164
901.595 3.74146
902.070 5.43375
902.545 8.05683
903.020 12.2697
903.495 19.3894
903.971 32.3073
904.208 42.8775
904.446 58.3330
904.683 81.9144
904.921 119.880
905.158 185.527
905.396 309.939
905.515 415.951
905.634 575.229
905.752 821.023
905.871 1201.19
906.036 1989.96
906.200 2574.51
906.365 2130.67
906.530 1376.53
906.725 811.230
906.919 517.143
907.114 356.273
907.309 260.972
907.503 200.350
907.698 159.542
908.087 109.656
908.476 81.3573
908.866 63.6691
909.644 43.4097
910.422 32.5081
911.201 25.8660
911.979 21.4606
912.758 18.3529
914.315 14.2915
915.872 11.7675
917.429 10.0434
918.986 8.78105
922.099 7.01721
925.213 5.78413
931.441 3.95788
934.555 3.15900
937.669 2.36947
940.783 1.57955
943.897 0.860235
945.454 0.617401
945.843 0.584072
946.232 0.566962
946.621 0.569792
947.010 0.597199
947.400 0.654989
947.789 0.750409
948.178 0.892715
948.567 1.09357
948.957 1.36817
949.346 1.73595
949.735 2.22265
950.124 2.86234
950.903 4.80077
951.681 8.16656
952.460 14.2042
952.849 18.9812
953.238 25.6872
953.628 35.3454
954.017 49.6998
954.406 71.9228
954.795 108.176
955.184 171.530
955.574 292.624
955.768 396.193
955.963 552.057
956.157 792.777
956.352 1165.80
956.626 1960.24
956.900 2570.70
957.174 2154.34
957.448 1408.59
957.754 863.164
958.059 566.042
958.365 397.864
958.670 295.670
958.976 229.348
959.282 183.856
959.893 126.737
960.504 92.6037
961.115 68.8952
961.421 58.6805
961.574 53.6626
961.726 48.6729
961.879 44.0742
961.956 42.4440
962.032 42.2584
962.108 46.0121
962.147 51.4234
962.185 61.9570
962.223 82.6418
962.242 99.9535
962.261 125.115
962.280 162.388
962.299 218.696
962.319 305.070
962.338 436.557
962.353 590.750
962.369 782.701
962.400 1110.78
962.416 1118.05
962.431 1017.80
962.463 730.453
962.499 488.160
962.536 351.103
962.573 271.197
962.609 221.331
962.646 187.934
962.683 164.463
962.756 133.954
962.829 115.213
962.903 102.618
963.049 86.6887
963.196 76.8947
963.343 70.1404
963.636 61.1392
963.929 55.1551
964.222 50.7256
964.809 44.3450
965.982 36.3020
967.155 31.1907
969.501 24.8796
971.847 21.0935
974.193 18.5646
976.539 16.7563
981.231 14.3428
985.924 12.8040
990.616 11.7351
1000.00 10.3407
1010.61 9.37252
1021.21 8.72530
1031.82 8.25629
1042.42 7.89632
1053.03 7.60771
1063.63 7.36853
1068.93 7.26371
1074.24 7.16991
1076.89 7.13070
1078.21 7.11587
1079.54 7.10843
1080.86 7.11905
1081.53 7.14102
1082.19 7.19023
1082.52 7.23558
1082.85 7.30739
1083.18 7.42859
1083.52 7.65053
1083.68 7.83738
1083.85 8.12046
1084.01 8.57774
1084.18 9.37880
1084.26 10.0337
1084.34 10.9994
1084.43 12.5068
1084.51 15.0066
1084.59 19.7327
1084.63 23.8646
1084.68 30.1273
1084.72 40.8070
1084.76 59.7316
1084.78 75.6549
1084.80 97.6582
1084.82 131.928
1084.84 180.130
1084.87 282.689
1084.90 350.519
1084.93 279.070
1084.96 177.319
1085.00 103.180
1085.03 66.6086
1085.07 46.8282
1085.10 35.2525
1085.14 27.8246
1085.17 23.0549
1085.24 17.3376
1085.31 14.1540
1085.38 12.2549
1085.52 10.1665
1085.67 9.09990
1085.81 8.49059
1085.95 8.10510
1086.09 7.84888
1086.37 7.53496
1086.65 7.35832
1086.93 7.24797
1087.21 7.17377
1087.77 7.08150
1088.34 7.02675
1089.46 6.96282
1090.59 6.92352
1091.71 6.89420
1093.96 6.84775
1098.46 6.77149
1102.96 6.70241
1111.95 6.57153
1116.45 6.50853
1118.70 6.48097
1119.82 6.48171
1120.11 6.49414
1120.39 6.53382
1120.53 6.58786
1120.67 6.72380
1120.74 6.88667
1120.81 7.23954
1120.84 7.59373
1120.88 8.23087
1120.91 9.50123
1120.93 10.6492
1120.95 12.2450
1120.97 15.7125
1121.00 18.0188
1121.03 15.7125
1121.05 12.2444
1121.07 10.4963
1121.09 9.39834
1121.13 8.13265
1121.16 7.51435
1121.20 7.17607
1121.27 6.84293
1121.35 6.69153
1121.50 6.56181
1121.64 6.50881
1121.94 6.46464
1122.23 6.44543
1123.41 6.41328
1125.78 6.37538
1130.50 6.30577
1135.22 6.23546
1137.59 6.20004
1138.77 6.18412
1139.36 6.18339
1139.65 6.20642
1139.80 6.27920
1139.88 6.42772
1139.91 6.62633
1139.95 7.05741
1140.00 7.95100
1140.05 7.05594
1140.09 6.61597
1140.13 6.42390
1140.20 6.27412
1140.34 6.19627
1140.64 6.16354
1141.22 6.14562
1142.39 6.12454
1144.72 6.08583
1149.39 6.00610
1158.73 5.82826
1168.07 5.61104
1177.40 5.32380
1182.07 5.13582
1186.74 4.90013
1191.41 4.59149
1196.08 4.16427
1198.41 3.88079
1200.75 3.52799
1203.08 3.07827
1205.42 2.49456
1206.58 2.14053
1207.75 1.74742
1208.92 1.34204
1210.08 1.03546
1210.38 1.01012
1210.67 1.02655
1210.96 1.10421
1211.25 1.27128
1211.54 1.57277
1211.69 1.79385
1211.84 2.07685
1211.98 2.43696
1212.13 2.89375
1212.27 3.47269
1212.42 4.20165
1212.71 6.32898
1213.00 9.86265
1213.29 15.9716
1213.44 20.6882
1213.59 27.1413
1213.73 36.3109
1213.88 49.6534
1214.02 69.7925
1214.17 101.616
1214.32 154.888
1214.46 250.712
1214.53 327.947
1214.61 437.976
1214.68 596.975
1214.75 822.161
1214.88 1391.05
1215.00 1836.37
1215.12 1549.68
1215.25 1020.55
1215.39 617.112
1215.54 402.527
1215.68 283.208
1215.83 211.963
1215.97 165.759
1216.12 134.512
1216.41 95.6302
1216.69 73.2045
1216.98 58.9778
1217.56 42.3944
1218.14 33.2834
1218.72 27.6385
1219.30 23.8443
1219.87 21.1402
1221.03 17.5709
1222.19 15.3443
1223.34 13.8312
1224.50 12.7399
1226.81 11.2753
1229.12 10.3406
1231.44 9.69220
1233.75 9.21609
1238.37 8.56163
1243.00 8.13072
