Pd-105(n,g) ENDF/B-VII.1
Energy(eV) XS(b)
1.00000E-05 1051.93
1.25000E-05 940.875
1.50000E-05 858.898
2.00000E-05 743.827
2.75000E-05 634.337
3.50000E-05 562.280
4.25000E-05 510.260
5.00000E-05 470.436
6.25000E-05 420.771
7.50000E-05 384.109
0.000100000 332.648
0.000125000 297.528
0.000150000 271.605
0.000200000 235.216
0.000275000 200.591
0.000350000 177.804
0.000425000 161.354
0.000500000 148.760
0.000625000 133.054
0.000750000 121.460
0.00100000 105.185
0.00125000 94.0790
0.00150000 85.8804
0.00200000 74.3719
0.00275000 63.4210
0.00350000 56.2137
0.00425000 51.0102
0.00500000 47.0265
0.00625000 42.0580
0.00750000 38.3900
0.0100000 33.2406
0.0125000 29.7258
0.0150000 27.1309
0.0200000 23.4874
0.0253000 20.8748
0.0314750 18.7069
0.0376500 17.0965
0.0500000 14.8222
0.0625000 13.2453
0.0750000 12.0803
0.100000 10.4429
0.125000 9.32354
0.150000 8.49588
0.200000 7.33137
0.275000 6.21906
0.350000 5.48372
0.500000 4.54090
0.750000 3.64644
1.00000 3.10800
1.50000 2.46352
2.00000 2.07754
2.75000 1.71331
3.50000 1.48126
5.00000 1.21810
7.50000 1.13743
8.75000 1.31158
9.37500 1.52334
10.0000 1.92717
10.4285 2.45030
10.8570 3.51085
11.0713 4.59150
11.2855 6.84701
11.3926 9.21930
11.4998 14.1105
11.5533 18.8988
11.6069 27.4664
11.6604 44.7085
11.6872 60.0257
11.7140 82.9901
11.7520 129.976
11.7900 161.313
11.8280 130.092
11.8660 83.5296
11.9059 52.9035
11.9457 36.4569
11.9855 27.3885
12.0254 22.1389
12.1051 17.0802
12.1848 15.3785
12.3441 16.3220
12.5035 21.3654
12.6629 32.6435
12.7426 42.9735
12.8223 59.6910
12.9019 88.9914
12.9816 146.500
13.0215 197.757
13.0613 278.744
13.1012 412.739
13.1410 638.311
13.1633 817.051
13.1855 1021.60
13.2300 1276.72
13.2745 1018.03
13.3190 633.864
13.3712 359.406
13.4234 220.542
13.4756 146.351
13.5278 103.346
13.5800 76.5514
13.6322 58.8606
13.7366 37.8118
13.8410 26.3080
13.9454 19.3664
14.1541 11.7878
14.3629 7.96813
14.5717 5.78063
14.7805 4.41345
14.9893 3.50289
15.4068 2.40457
15.8244 1.79397
16.6595 1.17903
17.4946 0.899539
18.3298 0.762228
20.0000 0.704104
21.2702 0.842026
21.9053 1.02311
22.5404 1.37501
23.1755 2.14026
23.4931 2.89719
23.8106 4.25450
23.9694 5.37667
24.1282 7.05732
24.2869 9.73843
24.4457 14.4021
24.6045 23.6102
24.6839 32.0063
24.7633 45.8596
24.8426 71.0659
24.8823 92.1429
24.9220 123.891
24.9617 174.529
25.0014 261.043
25.0213 328.109
25.0411 420.777
25.0610 550.442
25.0808 730.432
25.0981 934.447
25.1154 1167.43
25.1500 1457.93
25.1846 1165.76
25.2192 728.376
25.2569 430.034
25.2946 271.313
25.3323 183.322
25.3700 131.034
25.4077 97.8783
25.4454 75.7102
25.5208 48.9993
25.5961 34.2183
25.6715 25.2278
25.8223 15.3385
25.9731 10.3208
26.1238 7.43639
26.2746 5.62964
26.4254 4.42496
26.7269 2.97177
27.0285 2.16627
27.3300 1.67903
27.6316 1.36880
28.2346 1.04719
28.8377 1.02704
29.1393 1.21231
29.2901 1.42723
29.4408 1.82367
29.5916 2.62518
29.6670 3.35650
29.7424 4.55222
29.8178 6.68622
29.8931 10.9985
29.9308 14.9636
29.9685 21.4322
30.0062 32.6091
30.0439 52.4600
30.0820 83.6411
30.1200 104.392
30.1581 83.5269
30.1961 52.3110
30.2280 34.8199
30.2599 24.0742
30.2918 17.3965
30.3237 13.0821
30.3875 8.13923
30.4513 5.56762
30.5151 4.07552
30.5789 3.13747
30.7065 2.07093
30.8341 1.51034
30.9617 1.17882
31.2169 0.819834
31.4722 0.636993
31.7274 0.529288
32.2378 0.410498
33.2586 0.309185
34.2795 0.268924
35.3003 0.260173
36.3211 0.298204
36.8316 0.367962
37.0868 0.439467
37.3420 0.568567
37.5972 0.833418
37.7248 1.08322
37.8524 1.50968
37.9800 2.32575
38.0438 3.04457
38.1076 4.18717
38.1714 6.15277
38.2352 9.91526
38.2671 13.1840
38.2990 18.2189
38.3309 26.2687
38.3628 39.2643
38.4014 62.6889
38.4400 78.2790
38.4786 62.6256
38.5172 39.1849
38.5484 26.4303
38.5795 18.4472
38.6107 13.4069
38.6418 10.1131
38.7041 6.29530
38.7664 4.28818
38.8288 3.11689
38.8911 2.37811
39.0157 1.53735
39.1403 1.09682
39.2649 0.838203
39.5142 0.563012
39.7634 0.427954
40.0126 0.352551
40.5111 0.278952
41.0096 0.254245
41.5081 0.270392
41.7573 0.311999
42.0065 0.430612
42.1312 0.578293
42.1935 0.709532
42.2558 0.919096
42.3181 1.28098
42.3804 1.97620
42.4116 2.58197
42.4427 3.51687
42.4739 5.01561
42.5050 7.44243
42.5425 11.8024
42.5800 14.7122
42.6175 11.8118
42.6550 7.45352
42.6837 5.17727
42.7124 3.71577
42.7411 2.77290
42.7698 2.14587
42.8272 1.40620
42.8845 1.01057
42.9419 0.776885
42.9993 0.628217
43.1141 0.457422
43.2288 0.366973
43.3436 0.313420
43.5731 0.255847
44.0322 0.211183
44.4913 0.195351
46.3275 0.193009
48.1638 0.230041
50.0000 0.328550
51.2830 0.499034
51.9245 0.668855
52.5661 0.976535
52.8868 1.23382
53.2076 1.62373
53.5283 2.25602
53.8491 3.38292
54.0095 4.31081
54.1698 5.69607
54.3302 7.89670
54.4906 11.7023
54.6510 19.1467
54.7312 25.8660
54.8114 36.8315
54.8915 56.4469
54.9316 72.5633
54.9717 96.4156
55.0118 133.552
55.0519 194.862
55.0720 240.859
55.0920 302.613
55.1121 386.198
55.1321 498.252
55.1516 637.728
55.1711 797.038
55.2100 996.048
55.2295 937.217
55.2490 796.443
55.2879 497.524
55.3132 360.993
55.3385 267.168
55.3892 158.061
55.4398 102.449
55.4905 71.2022
55.5411 52.1430
55.5917 39.7485
55.6930 25.2171
55.7943 17.3853
55.8955 12.7030
56.0981 7.63310
56.3006 5.09723
56.5032 3.65221
56.7057 2.75224
56.9083 2.15445
57.3133 1.43534
57.7184 1.03645
58.1235 0.793025
58.5286 0.634117
59.3388 0.447523
60.1490 0.348370
61.7693 0.260109
63.3897 0.242576
65.0100 0.291891
65.8202 0.377925
66.2253 0.464391
66.6304 0.620013
67.0354 0.943021
67.2380 1.25434
67.4405 1.80146
67.6431 2.90102
67.7444 3.92386
67.8456 5.64977
67.9469 8.89914
67.9975 11.7154
68.0482 16.1164
68.0988 23.5080
68.1494 37.1384
68.1748 48.5361
68.2001 65.4420
68.2254 91.1947
68.2507 130.472
68.2680 166.937
68.2854 208.576
68.3200 260.596
68.3547 208.469
68.3893 130.341
68.4255 78.6468
68.4617 50.4313
68.4979 34.4811
68.5340 24.8721
68.5702 18.7192
68.6064 14.5754
68.6788 9.54554
68.7512 6.74277
68.8235 5.02976
68.9683 3.13790
69.1130 2.17507
69.2577 1.62122
69.5472 1.04474
69.8367 0.769999
70.1262 0.621520
70.7051 0.484551
71.2841 0.440322
71.8630 0.440895
73.0210 0.536203
74.1789 0.807517
74.7578 1.08742
75.3368 1.59721
75.6263 2.02355
75.9157 2.66889
76.2052 3.71324
76.4947 5.56869
76.6394 7.09168
76.7842 9.35839
76.9289 12.9444
77.0737 19.1090
77.2184 31.0536
77.2908 41.7255
77.3631 58.9511
77.4355 89.2632
77.4717 113.754
77.5079 149.407
77.5441 203.699
77.5802 290.624
77.6164 437.021
77.6526 688.800
77.6913 1101.70
77.7300 1376.68
77.7687 1101.06
77.8074 688.043
77.8420 445.004
77.8765 300.281
77.9110 212.628
77.9456 157.118
78.0147 94.7446
78.0838 62.9088
78.1528 44.6724
78.2219 33.3166
78.3601 20.5505
78.4983 13.9374
78.6365 10.0844
78.7746 7.64762
78.9128 6.01123
79.1892 4.02145
79.4655 2.90735
79.7419 2.22477
80.0182 1.77963
80.5709 1.26348
81.1236 1.00296
82.2290 0.834308
83.3344 0.983316
83.8871 1.22845
84.4398 1.71870
84.7162 2.14292
84.9925 2.79457
85.2689 3.86028
85.5452 5.76878
85.6834 7.34296
85.8216 9.69374
85.9597 13.4272
86.0979 19.8757
86.2361 32.4573
86.3052 43.7783
86.3743 62.1851
86.4433 94.9369
86.4779 121.696
86.5124 161.076
86.5470 221.925
86.5815 321.315
86.6161 493.386
86.6333 625.031
86.6506 799.802
86.6853 1279.33
86.7200 1598.76
86.7547 1278.74
86.7894 799.096
86.8152 554.480
86.8410 395.510
86.8668 291.865
86.8926 222.369
86.9442 139.711
86.9958 95.1614
87.0474 68.7304
87.0990 51.8724
87.2022 32.4749
87.3055 22.2045
87.4087 16.1329
87.5119 12.2526
87.6151 9.62517
87.8215 6.39876
88.0279 4.56936
88.2343 3.43311
88.4407 2.67941
88.8536 1.77272
89.2664 1.26844
89.6792 0.958989
90.0921 0.755276
90.9177 0.511701
91.7434 0.376767
93.3947 0.239905
95.0460 0.176156
96.6974 0.143918
98.3487 0.132072
99.1743 0.136275
100.000 0.161310
100.254 0.184052
100.508 0.235991
100.634 0.294518
100.761 0.422958
100.825 0.556316
100.888 0.809728
100.920 1.02991
100.952 1.37021
100.983 1.91787
101.015 2.81021
101.053 4.38946
101.090 5.44500
101.128 4.40347
101.165 2.83746
101.194 2.00689
101.224 1.48307
101.253 1.15270
101.283 0.940158
101.341 0.706755
101.400 0.611930
101.459 0.603358
101.518 0.686215
101.576 0.936698
101.606 1.19069
101.635 1.59732
101.673 2.37146
101.710 2.88720
101.748 2.36155
101.785 1.57618
101.819 1.11367
101.852 0.839063
101.919 0.568527
101.986 0.453374
102.052 0.398556
102.186 0.359836
102.320 0.361650
102.587 0.426770
102.855 0.578422
103.122 0.905903
103.256 1.21903
103.389 1.75759
103.523 2.79718
103.590 3.72159
103.657 5.20159
103.724 7.78381
103.790 12.8168
103.824 17.2789
103.857 24.2954
103.891 35.8279
103.924 55.0915
103.962 88.3864
104.000 110.697
104.038 88.3531
104.076 55.0498
104.101 39.6561
104.126 29.2191
104.177 17.1976
104.227 11.1172
104.277 7.72791
104.327 5.66494
104.378 4.32940
104.478 2.76688
104.578 1.92553
104.679 1.42343
104.880 0.879624
105.081 0.607351
105.282 0.452029
105.683 0.290430
106.085 0.212235
106.487 0.168436
107.291 0.123449
108.898 0.0899573
110.506 0.0783996
113.720 0.0763054
115.328 0.0931256
115.730 0.109035
116.131 0.150260
116.332 0.202209
116.433 0.250104
116.533 0.330133
116.634 0.479109
116.684 0.606489
116.734 0.803028
116.784 1.12789
116.835 1.71002
116.885 2.86725
116.910 3.87527
116.935 5.35738
116.973 8.51836
117.010 10.6231
117.048 8.52132
117.085 5.36131
117.121 3.39660
117.157 2.27023
117.193 1.60710
117.228 1.19563
117.300 0.742103
117.372 0.515355
117.443 0.386932
117.515 0.307815
117.658 0.219761
117.801 0.174753
117.945 0.148957
118.231 0.122594
118.804 0.105090
119.377 0.102071
120.523 0.110414
121.670 0.133345
122.816 0.183747
123.389 0.233162
123.962 0.321638
124.535 0.505911
124.821 0.684794
125.108 1.00216
125.251 1.26262
125.395 1.65027
125.538 2.26369
125.681 3.31781
125.824 5.36314
125.896 7.19064
125.968 10.1421
126.039 15.3498
126.111 25.6858
126.147 35.0260
126.182 50.0008
126.218 75.2503
126.254 118.694
126.273 151.615
126.292 189.087
126.330 235.686
126.369 188.043
126.407 117.082
126.439 77.7079
126.471 53.5184
126.503 38.4817
126.535 28.7626
126.600 17.6237
126.664 11.8282
126.728 8.46816
126.792 6.35825
126.921 3.96848
127.049 2.72010
127.177 1.98929
127.434 1.21385
127.691 0.833675
127.948 0.620764
128.461 0.406287
128.975 0.311971
129.488 0.277148
129.745 0.284125
130.002 0.332376
130.130 0.401105
130.258 0.566287
130.323 0.744948
130.387 1.09261
130.419 1.39881
130.451 1.87629
130.483 2.65153
130.515 3.92047
130.553 6.15204
130.590 7.63935
130.628 6.15235
130.665 3.91982
130.692 2.82628
130.718 2.10128
130.771 1.28908
130.824 0.890225
130.876 0.671233
130.982 0.454962
131.088 0.356613
131.299 0.273178
131.510 0.240796
131.933 0.220908
132.355 0.225189
132.778 0.250178
133.200 0.322540
133.411 0.413931
133.517 0.497831
133.623 0.638058
133.728 0.899783
133.781 1.12468
133.834 1.47385
133.887 2.05512
133.939 3.11412
133.966 3.98882
133.992 5.27135
134.019 7.19711
134.045 10.0880
134.083 16.0062
134.120 19.9489
134.158 16.0129
134.195 10.0981
134.229 6.60240
134.262 4.52269
134.296 3.26513
134.329 2.46951
134.397 1.57742
134.464 1.12364
134.531 0.865076
134.598 0.705284
134.733 0.528837
135.001 0.394526
135.270 0.358232
135.539 0.365173
135.808 0.422556
135.942 0.497039
136.076 0.668058
136.144 0.850302
136.211 1.20543
136.244 1.52083
136.278 2.01840
136.312 2.84031
136.345 4.21592
136.383 6.54993
136.420 8.10671
136.458 6.55646
136.495 4.22770
136.531 2.77054
136.568 1.94202
136.604 1.45799
136.640 1.15990
136.712 0.835306
136.785 0.676857
136.930 0.540193
137.075 0.491963
137.654 0.505582
138.234 0.631068
138.813 0.876376
139.393 1.39151
139.682 1.89029
139.972 2.77196
140.117 3.49367
140.262 4.56577
140.407 6.25868
140.552 9.16050
140.696 14.7717
140.769 19.7770
140.841 27.8246
140.914 41.9544
140.986 69.7841
141.022 94.7275
141.059 134.381
141.095 200.484
141.131 312.647
141.171 498.501
141.210 621.712
141.250 498.346
141.289 312.465
141.324 204.377
141.358 139.082
141.393 99.1135
141.427 73.6510
141.496 44.7577
141.565 29.8958
141.634 21.3341
141.703 15.9957
141.840 9.97712
141.978 6.85168
142.116 5.03160
142.392 3.11149
142.667 2.18083
142.943 1.66859
143.494 1.17483
144.046 0.984848
144.597 0.934086
145.700 1.08856
146.251 1.30030
146.802 1.65359
147.354 2.25380
147.905 3.35210
148.181 4.26964
148.456 5.65298
148.732 7.87821
149.007 11.7886
149.145 14.9643
149.283 19.6338
149.421 26.9043
149.559 39.1168
149.628 48.6065
149.697 61.9617
149.766 81.5912
149.834 112.015
149.903 162.487
149.972 253.869
150.007 328.970
150.041 438.040
150.076 600.924
150.110 842.365
150.160 1345.18
150.210 1679.12
150.260 1344.48
150.310 841.610
150.346 588.913
150.383 422.860
150.419 313.621
150.456 240.026
150.528 151.682
150.601 103.699
150.674 75.0967
150.746 56.7885
150.892 35.6582
151.037 24.4391
151.183 17.7970
151.328 13.5499
151.473 10.6747
151.764 7.15185
152.055 5.16856
152.346 3.95603
152.637 3.17751
153.218 2.35783
153.800 2.26792
154.091 2.67516
154.236 3.15606
154.381 4.04507
154.527 5.83832
154.600 7.46770
154.672 10.1189
154.745 14.8140
154.818 24.1846
154.854 32.6963
154.890 46.3497
154.927 69.5470
154.963 109.641
155.002 175.224
155.040 219.088
155.079 175.163
155.117 109.552
155.146 76.0460
155.175 54.4174
155.203 40.3442
155.232 30.9202
155.289 19.7242
155.347 13.6920
155.404 10.1134
155.462 7.82927
155.576 5.19850
155.691 3.80348
155.806 2.97854
156.036 2.09965
156.265 1.67933
156.495 1.46737
156.954 1.37162
157.413 1.65178
157.643 2.02667
157.873 2.74167
158.102 4.23744
158.217 5.64868
158.332 8.04344
158.447 12.5658
158.504 16.4881
158.561 22.6181
158.619 32.9027
158.676 51.8351
158.705 67.6274
158.734 90.9939
158.762 126.469
158.791 180.368
158.811 230.633
158.831 287.637
158.870 358.828
158.910 287.552
158.949 180.258
158.986 115.045
159.022 76.9442
159.059 54.1285
159.095 39.8640
159.168 23.9725
159.241 15.9355
159.315 11.3579
159.388 8.51699
159.534 5.33216
159.680 3.68211
159.826 2.71904
160.118 1.69536
160.411 1.18823
160.703 0.898702
161.288 0.593838
161.873 0.442260
162.457 0.354771
163.627 0.263363
164.796 0.226624
165.965 0.237565
166.550 0.283391
166.842 0.334116
167.135 0.428359
167.427 0.625918
167.573 0.814966
167.719 1.14161
167.866 1.77839
167.939 2.34990
168.012 3.27464
168.085 4.91302
168.158 8.19325
168.195 11.1876
168.231 16.0188
168.268 24.2658
168.304 38.7017
168.342 62.0101
168.380 77.6166
168.418 61.9959
168.456 38.6842
168.490 24.8800
168.525 16.7386
168.559 11.8461
168.594 8.77043
168.662 5.32426
168.731 3.57224
168.800 2.57029
168.868 1.94872
169.006 1.25172
169.143 0.892425
169.281 0.685464
169.556 0.475392
169.830 0.394212
170.105 0.407215
170.243 0.478184
170.380 0.676231
170.449 0.901856
170.518 1.35491
170.552 1.76490
170.586 2.41722
170.621 3.51130
170.655 5.36790
170.693 8.46171
170.730 10.5210
170.768 8.45822
170.805 5.35955
170.831 3.88244
170.856 2.88845
170.907 1.75314
170.958 1.18565
171.009 0.870578
171.111 0.554474
171.214 0.407751
171.418 0.278588
171.622 0.223513
172.030 0.176209
172.439 0.155868
174.072 0.134664
175.706 0.144032
177.340 0.178399
178.973 0.263430
179.790 0.350950
180.607 0.511442
181.015 0.646434
181.424 0.851669
181.832 1.18543
182.240 1.78191
182.445 2.27404
182.649 3.00994
182.853 4.18130
183.057 6.21228
183.261 10.1996
183.364 13.8122
183.466 19.7310
183.568 30.3806
183.619 39.1918
183.670 52.2870
183.721 72.8760
183.772 107.196
183.798 133.325
183.823 168.632
183.849 216.918
183.874 282.442
183.922 453.010
183.970 567.162
184.018 452.872
184.066 282.279
184.097 204.624
184.128 151.490
184.191 89.6938
184.253 58.1396
184.315 40.4322
184.377 29.6127
184.440 22.5848
184.564 14.3352
184.689 9.88738
184.813 7.22669
185.062 4.34495
185.311 2.90171
185.560 2.07864
185.809 1.56561
186.058 1.22466
186.556 0.813787
187.054 0.585415
187.552 0.445671
188.050 0.354150
189.045 0.246034
190.041 0.187863
192.033 0.134061
194.025 0.118605
196.017 0.130100
197.012 0.150527
198.008 0.190422
199.004 0.272211
199.502 0.346797
200.000 0.468545
200.319 0.591334
200.637 0.777816
200.956 1.08058
201.274 1.62029
201.433 2.06454
201.593 2.72662
201.752 3.77716
201.911 5.58741
202.070 9.11254
202.150 12.2742
202.230 17.4002
202.309 26.4950
202.349 33.8846
202.389 44.7152
202.429 61.3464
202.468 88.2977
202.508 134.430
202.528 169.364
202.548 215.386
202.589 344.354
202.630 430.215
202.671 344.275
202.712 215.291
202.756 128.591
202.799 81.7977
202.843 55.5868
202.887 39.8900
202.931 29.8860
202.974 23.1684
203.062 15.0411
203.149 10.5254
203.236 7.76995
203.411 4.72987
203.586 3.18216
203.761 2.28991
203.936 1.72957
204.110 1.35514
204.460 0.901171
204.809 0.647300
205.159 0.491178
205.509 0.388577
206.208 0.267083
206.907 0.203462
207.606 0.182217
207.781 0.192644
207.956 0.229765
208.043 0.276713
208.130 0.379343
208.174 0.479715
208.218 0.653311
208.261 0.977714
208.305 1.61277
208.343 2.50199
208.380 3.09429
208.418 2.50017
208.455 1.60880
208.484 1.14050
208.513 0.841265
208.570 0.519446
208.628 0.367554
208.686 0.285928
208.801 0.205732
208.916 0.168608
209.147 0.134785
209.378 0.118906
210.300 0.0931739
212.145 0.0758562
213.990 0.0771372
214.451 0.0849158
214.913 0.107580
215.143 0.137405
215.259 0.165385
215.374 0.212890
215.489 0.303016
215.547 0.381779
215.604 0.505580
215.662 0.716013
215.720 1.10953
215.749 1.44504
215.777 1.94877
215.806 2.73074
215.835 3.94994
215.873 6.27663
215.910 7.82590
215.948 6.27775
215.985 3.95138
216.027 2.33542
216.069 1.48795
216.110 1.02138
216.152 0.746461
216.194 0.572519
216.236 0.456834
216.319 0.317694
216.403 0.240959
216.486 0.194399
216.653 0.143396
216.987 0.103082
217.321 0.0883118
217.989 0.0789139
218.657 0.0780781
219.992 0.0864381
221.328 0.107765
222.664 0.156191
223.332 0.204775
224.000 0.292987
224.334 0.366878
224.667 0.478946
225.001 0.660971
225.335 0.985830
225.502 1.25378
225.669 1.65435
225.836 2.29180
226.003 3.39588
226.170 5.56356
226.254 7.52667
226.337 10.7365
226.421 16.5122
226.462 21.2877
226.504 28.3753
226.546 39.5094
226.588 58.0258
226.629 90.9895
226.650 116.934
226.671 151.893
226.691 194.738
226.711 243.564
226.750 304.902
226.790 243.518
226.829 151.838
226.853 112.367
226.877 84.6802
226.925 51.4385
226.973 33.8886
227.020 23.8296
227.068 17.5889
227.116 13.4942
227.212 8.64011
227.307 5.99340
227.403 4.39997
227.594 2.66417
227.786 1.79003
227.977 1.29006
228.169 0.977558
228.360 0.769595
228.743 0.518696
229.125 0.379115
229.508 0.293731
229.891 0.237867
230.656 0.172022
231.421 0.136687
232.952 0.103599
234.483 0.0915389
236.014 0.0889689
239.075 0.100958
242.137 0.138623
243.668 0.175550
245.198 0.238371
246.729 0.358012
247.494 0.464116
248.260 0.636376
249.025 0.948805
249.408 1.21468
249.791 1.63160
250.173 2.35989
250.365 2.96526
250.556 3.90418
250.747 5.54446
250.843 6.91609
250.939 9.05058
251.034 12.7488
251.130 20.2192
251.178 27.3120
251.226 39.4459
251.250 48.9340
251.273 62.1969
251.297 81.0246
251.321 107.629
251.341 136.351
251.361 169.145
251.400 210.296
251.420 198.544
251.439 170.031
251.479 109.437
251.508 79.1093
251.536 59.4258
251.594 38.3858
251.651 29.0321
251.709 24.8528
251.824 23.7159
251.939 28.6912
