Cd-110(n,g) ENDF/B-VII.1
Energy(eV) XS(b)
1.00000E-05 555.943
1.25000E-05 497.251
1.50000E-05 453.925
2.00000E-05 393.111
2.75000E-05 335.245
3.50000E-05 297.163
4.25000E-05 269.670
5.00000E-05 248.624
6.25000E-05 222.375
7.50000E-05 202.999
0.000100000 175.802
0.000125000 157.241
0.000150000 143.540
0.000200000 124.308
0.000275000 106.009
0.000350000 93.9654
0.000425000 85.2709
0.000500000 78.6148
0.000625000 70.3135
0.000750000 64.1856
0.00100000 55.5836
0.00125000 49.7131
0.00150000 45.3794
0.00200000 39.2959
0.00275000 33.5068
0.00350000 29.6962
0.00425000 26.9450
0.00500000 24.8384
0.00625000 22.2107
0.00750000 20.2706
0.0100000 17.5463
0.0125000 15.6863
0.0150000 14.3126
0.0200000 12.3830
0.0253000 10.9985
0.0314750 9.84897
0.0376500 8.99437
0.0500000 7.78626
0.0625000 6.94742
0.0750000 6.32680
0.100000 5.45283
0.125000 4.85378
0.150000 4.40971
0.200000 3.78267
0.237500 3.44660
0.275000 3.18039
0.350000 2.77972
0.500000 2.26197
0.750000 1.76522
1.00000 1.46301
1.50000 1.09803
2.00000 0.878069
2.75000 0.669612
3.50000 0.535269
5.00000 0.372391
7.50000 0.236147
10.0000 0.167799
12.5000 0.128702
15.0000 0.104500
20.0000 0.0781858
27.5000 0.0631413
35.0000 0.0610210
42.5000 0.0670764
50.0000 0.0821280
54.9289 0.0994714
59.8578 0.127002
64.7867 0.173043
69.7156 0.257470
72.1800 0.328724
74.6444 0.437681
77.1089 0.616683
79.5733 0.942300
80.8056 1.21630
81.4217 1.40188
81.7297 1.51141
81.8838 1.57116
82.0378 1.63459
82.1918 1.70202
82.3458 1.77379
82.4999 1.85028
82.6539 1.93191
82.8079 2.01918
82.9620 2.11259
83.1160 2.21275
83.2700 2.32032
83.5781 2.56081
83.8861 2.84135
84.1942 3.17139
84.5022 3.56331
84.8103 4.03368
85.1183 4.60495
85.4264 5.30830
85.7344 6.18787
86.0425 7.30804
86.3506 8.76537
86.6586 10.7105
86.9667 13.3882
87.2747 17.2193
87.5828 22.9754
87.8908 32.2008
88.1989 48.3617
88.3529 61.4378
88.5069 80.6253
88.6610 110.397
88.8150 160.160
88.9690 252.481
89.0460 331.247
89.1231 452.358
89.2001 651.086
89.2771 1005.01
89.3156 1290.72
89.3541 1700.47
89.3926 2299.54
89.4311 3172.09
89.4901 5072.54
89.5490 6337.21
89.6080 5068.39
89.6669 3167.28
89.7073 2260.40
89.7476 1649.89
89.7880 1239.26
89.8284 957.092
89.9091 612.699
89.9898 422.285
90.0705 307.404
90.1513 233.253
90.3127 146.983
90.4742 100.817
90.6356 73.3425
90.7971 55.7021
90.9585 43.7179
91.2815 28.9572
91.6044 20.5651
91.9273 15.3460
92.2502 11.8825
92.8960 7.71822
93.5418 5.40722
94.1876 3.99404
94.8335 3.06789
96.1251 1.96876
97.4167 1.36695
98.7084 1.00252
100.000 0.765483
101.563 0.575275
103.125 0.447422
106.250 0.291818
109.375 0.204538
112.500 0.150865
118.750 0.0912288
125.000 0.0607396
131.250 0.0431779
137.500 0.0321961
150.000 0.0198394
162.500 0.0135041
175.000 0.00993637
187.500 0.00790479
200.000 0.00707694
207.747 0.00748881
211.621 0.00830428
215.494 0.0100746
219.367 0.0142094
221.304 0.0184763
223.241 0.0263936
224.209 0.0331384
225.178 0.0435226
226.146 0.0607017
227.114 0.0921741
227.599 0.118802
228.083 0.159616
228.567 0.226825
229.051 0.349240
229.293 0.452276
229.535 0.609418
229.777 0.866420
230.019 1.33002
230.141 1.71647
230.262 2.29954
230.383 3.24099
230.504 4.90417
230.564 6.26454
230.625 8.27522
230.685 11.4313
230.746 16.7942
230.806 26.9955
230.821 31.0129
230.837 35.9484
230.852 42.1414
230.859 45.8710
230.867 50.0487
230.874 54.8792
230.882 60.4264
230.890 66.8352
230.897 74.1819
230.912 93.0159
230.927 119.610
230.942 158.805
230.958 217.982
230.973 310.812
230.988 457.326
231.007 731.960
231.026 913.553
231.036 859.649
231.045 730.382
231.064 457.256
231.078 324.956
231.091 236.339
231.104 177.036
231.118 136.436
231.144 87.0943
231.171 59.9995
231.197 43.6230
231.224 33.1067
231.277 20.8570
231.330 14.3088
231.383 10.4135
231.436 7.91316
231.489 6.21453
231.595 4.12225
231.702 2.93228
231.808 2.19189
231.914 1.70026
232.127 1.10844
232.339 0.779738
232.551 0.578439
232.764 0.446311
233.189 0.289137
233.613 0.202829
234.038 0.150384
234.463 0.116170
235.313 0.0757091
236.163 0.0536108
237.012 0.0402343
237.862 0.0315261
239.561 0.0212440
241.261 0.0156281
244.659 0.00999343
248.058 0.00733974
251.457 0.00586463
258.254 0.00433608
271.849 0.00313900
285.444 0.00269334
299.039 0.00257094
312.634 0.00276434
319.432 0.00307339
326.229 0.00375095
329.628 0.00447371
333.027 0.00613262
334.726 0.00817296
336.425 0.0135883
337.275 0.0208765
337.700 0.0280670
338.125 0.0410891
338.550 0.0686212
338.762 0.0956995
338.975 0.144351
339.081 0.184731
339.187 0.245482
339.293 0.343001
339.399 0.514175
339.506 0.856813
339.559 1.17380
339.612 1.70507
339.665 2.69436
339.691 3.54349
339.718 4.84929
339.745 7.01151
339.771 10.8781
339.784 14.0345
339.798 18.5987
339.811 25.3346
339.824 35.1624
339.844 56.3325
339.864 70.3599
339.884 56.2223
339.904 35.1665
339.918 24.4980
339.933 17.5676
339.947 13.0181
339.962 9.95066
339.991 6.27222
340.020 4.28631
340.049 3.10007
340.078 2.34415
340.136 1.47164
340.194 1.00760
340.252 0.733276
340.310 0.557426
340.368 0.438440
340.484 0.291978
340.600 0.208964
340.716 0.157395
340.833 0.123196
341.065 0.0820887
341.297 0.0593025
341.761 0.0362657
342.226 0.0254833
342.690 0.0196290
343.619 0.0139161
345.477 0.0102964
347.335 0.00968410
351.051 0.0113381
354.767 0.0160319
356.625 0.0202429
358.482 0.0268042
360.340 0.0377219
362.198 0.0577907
363.127 0.0748012
364.056 0.100909
364.985 0.143983
365.914 0.222652
366.379 0.289036
366.843 0.390540
367.308 0.557144
367.772 0.859171
368.004 1.11225
368.236 1.49624
368.469 2.12012
368.701 3.23469
368.817 4.15523
368.933 5.53097
369.049 7.72134
369.165 11.5205
369.194 12.9128
369.223 14.5662
369.252 16.5571
369.281 18.9830
369.296 20.4100
369.311 21.9915
369.325 23.7626
369.340 25.7548
369.369 30.5628
369.398 36.8356
369.427 45.2574
369.456 56.8220
369.485 73.3224
369.514 97.8982
369.543 136.636
369.572 201.187
369.586 250.143
369.601 316.539
369.615 407.353
369.630 530.550
369.657 849.123
369.684 1060.40
369.711 848.010
369.738 530.627
369.770 301.565
369.802 185.523
369.834 123.297
369.866 87.1298
369.897 64.5574
369.929 49.6291
369.993 31.8394
370.056 22.0984
370.120 16.2118
370.247 9.77443
370.374 6.52390
370.502 4.65962
370.629 3.49296
370.756 2.71500
371.011 1.77452
371.265 1.24990
371.519 0.927669
371.774 0.715713
372.283 0.463041
372.791 0.323988
373.300 0.239387
373.809 0.184122
374.827 0.118709
375.844 0.0829555
376.862 0.0613097
377.880 0.0472216
379.915 0.0306063
381.950 0.0215572
383.986 0.0160908
386.021 0.0125383
390.092 0.00835371
394.163 0.00607556
398.233 0.00469861
402.304 0.00380252
410.445 0.00274425
418.587 0.00216614
434.869 0.00159117
451.152 0.00133940
467.435 0.00125199
483.717 0.00143001
491.859 0.00209933
495.929 0.00351803
497.965 0.00562937
500.000 0.0122346
500.901 0.0208280
501.351 0.0293897
501.801 0.0449753
502.251 0.0780604
502.477 0.110680
502.702 0.169396
502.814 0.218229
502.927 0.291813
503.039 0.410169
503.152 0.618259
503.208 0.787487
503.265 1.03685
503.321 1.42588
503.377 2.07965
503.433 3.30780
503.462 4.37010
503.490 6.01732
503.518 8.77569
503.546 13.7945
503.560 17.9616
503.574 24.0329
503.588 33.2249
503.602 46.9423
503.622 75.2304
503.642 93.9839
503.662 75.0823
503.682 46.9459
503.700 30.0800
503.718 20.1517
503.737 14.1971
503.755 10.4675
503.791 6.28621
503.827 4.16236
503.864 2.94956
503.900 2.19577
503.972 1.34963
504.045 0.911394
504.118 0.656555
504.190 0.495337
504.263 0.386970
504.408 0.254860
504.553 0.180588
504.844 0.104402
505.134 0.0681121
505.425 0.0480497
506.006 0.0277914
507.168 0.0130633
508.329 0.00783608
510.653 0.00406604
512.977 0.00273558
517.624 0.00177943
522.272 0.00144391
540.862 0.00113717
578.041 0.00118514
615.221 0.00156118
624.516 0.00181627
633.811 0.00240553
638.458 0.00314651
643.106 0.00515772
645.430 0.00790969
647.753 0.0156649
648.915 0.0264044
649.496 0.0371150
650.077 0.0566551
650.658 0.0982829
650.949 0.139508
651.239 0.214044
651.384 0.276353
651.529 0.370621
651.675 0.523208
651.820 0.794295
651.893 1.01706
651.965 1.34799
652.038 1.87085
652.110 2.76771
652.183 4.49883
652.219 6.03874
652.256 8.51242
652.292 12.8340
652.328 21.3092
652.346 28.8885
652.364 40.8032
652.383 60.6325
652.401 93.8203
652.421 150.357
652.441 187.842
652.462 150.064
652.482 93.8260
652.495 67.6965
652.509 49.8670
652.535 29.3090
652.562 18.9198
652.589 13.1133
652.616 9.58508
652.643 7.29584
652.696 4.62198
652.750 3.18051
652.803 2.31973
652.857 1.76572
652.910 1.38918
653.018 0.923420
653.125 0.658178
653.232 0.492725
653.339 0.382834
653.553 0.250350
653.768 0.176627
653.982 0.131436
654.196 0.101763
654.625 0.0664232
655.053 0.0469958
655.910 0.0274797
656.768 0.0183638
657.625 0.0133890
659.339 0.00843152
662.767 0.00491439
666.196 0.00372932
673.053 0.00300027
679.910 0.00289177
693.624 0.00321763
707.338 0.00397052
721.053 0.00528365
734.767 0.00776265
741.624 0.0100470
748.481 0.0144052
751.909 0.0189265
753.624 0.0228650
755.338 0.0294948
757.052 0.0427953
757.909 0.0556278
758.766 0.0786725
759.195 0.0979569
759.624 0.127332
760.052 0.175442
760.481 0.262633
760.695 0.335755
760.909 0.446942
761.124 0.628119
761.338 0.953082
761.445 1.22271
761.552 1.62748
761.659 2.27671
761.766 3.41233
761.874 5.67856
761.927 7.76662
761.981 11.2420
762.034 17.6766
762.061 23.1457
762.088 31.4841
762.115 45.1245
762.141 69.2064
762.168 115.884
762.182 155.549
762.195 212.195
762.216 340.019
762.237 424.783
762.258 339.385
762.279 212.206
762.298 138.696
762.316 94.3438
762.335 67.2016
762.353 49.9445
762.390 30.2776
762.426 20.1858
762.463 14.3592
762.500 10.7279
762.573 6.62750
762.647 4.49210
762.720 3.24592
762.794 2.45475
762.867 1.92286
763.014 1.27326
763.161 0.907224
763.308 0.680947
763.455 0.531421
763.749 0.352414
764.042 0.253511
764.336 0.193250
764.630 0.153897
765.218 0.107474
765.805 0.0823744
766.980 0.0580522
768.156 0.0477218
769.331 0.0430806
771.681 0.0411462
776.382 0.0501766
781.083 0.0736168
783.434 0.0943348
785.784 0.126370
788.135 0.179237
790.485 0.275372
791.660 0.356013
792.248 0.410458
792.836 0.478530
793.423 0.565198
793.717 0.617679
794.011 0.677860
794.305 0.747320
794.599 0.828072
794.892 0.922699
795.186 1.03457
795.480 1.16819
795.774 1.32946
796.068 1.52662
796.361 1.77118
796.655 2.07960
796.949 2.47615
797.243 2.99783
797.537 3.70321
797.830 4.68942
798.124 6.12703
798.418 8.33755
798.712 11.9852
799.006 18.6188
799.153 24.1616
799.299 32.5068
799.446 45.7997
799.593 68.4801
799.740 110.264
799.814 144.137
799.887 191.066
800.016 306.115
800.145 383.127
800.274 306.831
800.402 191.974
800.496 133.908
800.591 95.9013
800.685 70.9827
800.779 54.2166
800.968 34.1649
801.156 23.3142
801.345 16.8557
801.533 12.7295
801.910 7.97252
802.287 5.44843
802.665 3.95455
803.042 2.99910
803.419 2.35188
804.173 1.55663
804.927 1.10566
805.681 0.825614
806.435 0.639943
807.943 0.416881
809.452 0.293194
810.960 0.217639
812.468 0.168234
815.485 0.110190
818.501 0.0805718
820.010 0.0734601
821.518 0.0755846
822.272 0.0868484
822.649 0.100010
823.026 0.125389
823.403 0.180949
823.592 0.236274
823.780 0.336000
823.969 0.543196
824.063 0.742237
824.157 1.08920
824.252 1.77754
824.299 2.40664
824.346 3.44773
824.393 5.35465
824.417 6.95691
824.440 9.36981
824.464 13.2541
824.487 19.9108
824.511 32.3857
824.534 56.8056
824.554 90.8336
824.575 113.507
824.595 90.8356
824.615 56.8080
824.637 32.9754
824.660 20.5652
824.683 13.7973
824.706 9.81861
824.728 7.31564
824.751 5.65076
824.796 3.65538
824.842 2.55670
824.887 1.89027
824.978 1.15945
825.069 0.788576
825.159 0.575340
825.341 0.352333
825.523 0.243965
825.704 0.183208
826.067 0.120757
826.430 0.0906557
826.793 0.0736566
827.519 0.0556777
828.972 0.0407059
830.424 0.0337492
833.328 0.0262125
836.233 0.0216756
842.042 0.0160425
847.851 0.0126360
859.469 0.00894100
871.087 0.00743284
882.705 0.00753722
888.514 0.00843128
894.323 0.0104262
900.132 0.0148413
903.036 0.0190751
905.941 0.0263135
908.845 0.0401919
910.298 0.0525583
911.750 0.0727578
913.202 0.110008
913.928 0.142621
914.654 0.195973
915.380 0.296836
915.744 0.388660
916.107 0.545628
916.470 0.859954
916.651 1.15878
916.833 1.68415
917.014 2.75529
917.105 3.77414
917.196 5.54031
917.287 9.02814
917.332 12.2104
917.377 17.4525
917.423 27.0215
917.445 35.0354
917.468 47.1302
917.491 66.4599
917.513 99.5959
917.536 161.051
917.559 280.169
917.578 448.755
917.598 560.475
917.618 447.857
917.637 280.193
917.651 199.346
917.664 145.488
917.678 109.100
917.692 84.3307
917.719 54.0395
917.746 37.3280
917.773 27.2627
917.800 20.7737
917.854 13.2340
917.908 9.20763
917.963 6.81718
918.071 4.25485
918.179 2.99284
918.288 2.29153
918.504 1.61087
918.721 1.34769
918.938 1.27813
919.371 1.49728
919.588 1.79469
919.805 2.28728
920.022 3.11561
920.130 3.74379
920.238 4.60434
920.292 5.15885
920.347 5.82513
920.401 6.63477
920.455 7.63138
920.509 8.87644
920.563 10.4589
920.618 12.5112
920.672 15.2313
920.726 18.9552
920.780 24.2261
920.834 32.0179
920.888 44.1590
920.943 64.5444
920.970 80.2327
920.997 102.045
921.024 133.308
921.051 179.548
921.078 249.723
921.105 355.857
921.143 569.415
921.180 711.287
921.218 568.977
921.255 355.501
921.294 216.058
921.332 139.328
921.370 95.4886
921.409 68.9852
921.447 51.9005
921.486 40.3845
921.563 26.3385
921.640 18.4837
921.716 13.6698
921.870 8.33589
922.024 5.60878
922.178 4.03176
922.332 3.03887
922.485 2.37361
922.793 1.56517
923.101 1.11106
923.408 0.830586
923.716 0.645162
924.331 0.422663
924.946 0.299089
925.561 0.223277
926.177 0.173365
927.407 0.113684
928.637 0.0806305
929.868 0.0603857
931.098 0.0470719
933.559 0.0311706
936.020 0.0223744
938.481 0.0169901
940.941 0.0134494
945.863 0.00921578
950.784 0.00686576
960.628 0.00446201
970.471 0.00330565
980.314 0.00265660
1000.00 0.00199804
1029.38 0.00166114
1058.76 0.00177964
1073.45 0.00214359
1080.79 0.00253012
1088.14 0.00324338
1095.48 0.00476655
1099.15 0.00627869
1102.83 0.00903211
1104.66 0.0113557
1106.50 0.0149120
1108.34 0.0207712
1110.17 0.0314774
1111.09 0.0405261
1112.01 0.0543958
1112.93 0.0772513
1113.84 0.118965
1114.30 0.154144
1114.76 0.207918
1115.22 0.296150
1115.68 0.456080
1115.91 0.590337
1116.14 0.793168
1116.37 1.12409
1116.60 1.71232
1116.71 2.19939
1116.83 2.92807
1116.94 4.08872
1117.00 4.93737
1117.06 6.07950
1117.11 7.70022
1117.14 8.76375
1117.17 10.0129
1117.20 11.6086
1117.23 13.6148
1117.26 16.1838
1117.29 19.4118
1117.32 23.8722
1117.34 30.0304
1117.37 38.8432
1117.40 51.4604
1117.43 71.8781
1117.46 104.543
1117.47 130.996
1117.49 164.448
1117.50 209.666
1117.52 270.313
1117.54 437.926
1117.57 545.647
1117.58 512.176
1117.60 432.218
1117.63 270.852
1117.64 195.700
1117.66 144.367
1117.70 85.0483
1117.73 54.9883
1117.77 38.1538
1117.81 27.9096
1117.84 21.2556
1117.91 13.5419
1117.98 9.31453
1118.06 6.81872
1118.20 4.08800
1118.34 2.71957
1118.48 1.93846
1118.63 1.45122
1118.77 1.12708
1119.06 0.735280
1119.34 0.518084
1119.63 0.384867
1119.92 0.297335
1120.49 0.193004
1121.06 0.135799
1121.63 0.101063
1122.20 0.0784333
1123.35 0.0518055
1124.49 0.0375100
1125.64 0.0291774
1126.78 0.0241897
1129.07 0.0203335
1130.22 0.0212060
1131.36 0.0250643
1132.51 0.0355442
1133.65 0.0675820
1134.22 0.112691
1134.51 0.157510
1134.80 0.238700
1135.08 0.409257
1135.23 0.575450
1135.37 0.870488
1135.44 1.11436
1135.51 1.47164
1135.58 2.04363
1135.65 3.00906
1135.73 4.89487
1135.76 6.57463
1135.80 9.18019
1135.83 13.8251
1135.87 22.9041
1135.89 30.9605
1135.91 43.6255
1135.92 64.3892
1135.94 96.4089
1135.96 155.129
1135.98 191.563
1136.00 152.165
1136.02 96.4126
1136.04 70.6372
1136.05 52.6949
1136.07 31.5222
1136.10 20.5721
1136.13 14.3612
1136.15 10.5499
1136.18 8.05974
1136.23 5.12780
1136.28 3.54088
1136.33 2.58918
1136.44 1.56241
1136.54 1.04078
1136.65 0.743105
1136.75 0.557446
1136.85 0.434923
1137.06 0.285536
1137.27 0.202683
1137.68 0.118109
1138.10 0.0780826
1138.51 0.0560021
1139.34 0.0336968
1141.00 0.0172847
1142.66 0.0112777
1145.98 0.00668002
1149.30 0.00488130
1155.93 0.00340812
1162.57 0.00281565
1175.84 0.00240225
1189.11 0.00237622
1215.66 0.00299424
1222.30 0.00341374
1228.93 0.00429934
1235.57 0.00807422
1237.23 0.0117459
1238.89 0.0219938
1239.72 0.0361072
1240.55 0.0755448
1240.96 0.129447
1241.17 0.182657
1241.38 0.277763
1241.58 0.476318
1241.69 0.667904
1241.79 1.00002
1241.89 1.66893
1241.95 2.28707
1242.00 3.29559
1242.05 5.19218
1242.08 6.80790
1242.10 9.28839
1242.13 13.3472
1242.15 20.5443
1242.18 34.5725
1242.19 46.5413
1242.20 62.2577
1242.23 100.986
1242.25 125.333
1242.27 99.0169
1242.29 62.2600
1242.31 39.5439
1242.32 26.3260
1242.34 18.4667
1242.36 13.7617
1242.40 8.19905
1242.44 5.45629
1242.47 3.84782
1242.51 2.87564
1242.59 1.76717
1242.66 1.19419
1242.74 0.860627
1242.89 0.509574
1243.04 0.336239
1243.18 0.239321
1243.48 0.139452
1243.78 0.0918899
1244.08 0.0655959
1244.68 0.0390552
1245.88 0.0198026
1247.07 0.0130320
1249.47 0.00826362
1251.86 0.00670897
1256.64 0.00588028
1261.43 0.00593966
1271.00 0.00693887
1280.57 0.00879582
1290.14 0.0119079
1299.71 0.0176445
1304.49 0.0228232
1309.28 0.0325000
1311.67 0.0423669
1312.87 0.0508798
1314.06 0.0651191
1315.26 0.0935350
1315.86 0.120809
1316.46 0.169587
1317.05 0.271976
1317.35 0.372613
1317.65 0.553872
1317.80 0.705492
1317.95 0.933055
1318.10 1.30325
1318.25 1.95491
1318.32 2.49179
1318.40 3.28976
1318.47 4.54943
1318.55 6.66920
1318.62 10.7849
1318.66 14.4897
1318.70 20.2544
1318.74 30.5335
1318.77 49.9007
1318.79 67.3509
1318.81 92.8862
1318.83 136.204
1318.85 202.555
1318.87 321.919
1318.89 400.623
1318.91 321.927
1318.94 202.565
1318.95 148.444
1318.96 110.741
1318.99 67.3570
1319.02 44.4552
1319.04 31.2781
1319.07 23.1097
1319.10 17.7334
1319.15 11.3563
1319.21 7.87967
1319.26 5.78471
1319.37 3.49964
1319.48 2.34857
1319.58 1.68944
1319.69 1.27747
1319.80 1.00305
1320.02 0.671876
1320.23 0.487475
1320.45 0.374552
1320.66 0.300560
1321.10 0.213053
1321.53 0.165679
1322.39 0.119950
1323.26 0.100863
1324.12 0.0927206
1325.85 0.0907365
1329.31 0.112961
1332.76 0.166275
1334.49 0.212545
1335.36 0.243902
1336.22 0.283117
1337.09 0.333040
1337.52 0.363193
1337.95 0.397714
1338.38 0.437482
1338.81 0.483608
1339.25 0.537514
1339.68 0.601046
1340.11 0.676818
1340.54 0.767725
1341.41 1.01475
1341.84 1.18564
1342.27 1.40361
1342.70 1.68761
1343.13 2.06706
1343.57 2.58971
1344.00 3.33697
1344.43 4.45662
1344.86 6.23845
1345.29 9.30921
1345.51 11.7383
1345.73 15.2045
1345.94 20.3427
1346.16 28.2841
1346.37 41.0433
1346.59 61.7831
1346.85 99.2868
1347.11 124.451
1347.37 99.2334
1347.63 61.7327
1347.80 44.9608
1347.96 33.3912
1348.29 19.8883
1348.62 12.9482
1348.96 9.02542
1349.29 6.61744
1349.62 5.05200
1350.28 3.21077
1350.94 2.21399
1351.61 1.61765
1352.93 0.969974
1354.26 0.645284
1355.58 0.459911
1356.91 0.344269
1358.23 0.267380
1360.88 0.174588
1363.53 0.122933
1366.18 0.0912418
1368.83 0.0704253
1374.13 0.0456325
1379.43 0.0319977
1384.72 0.0237072
1390.02 0.0182941
1400.62 0.0118912
1411.22 0.00839506
1421.82 0.00628151
1432.42 0.00490888
1453.61 0.00329857
