Cd-106(n,tot) ENDF/B-VII.1
Energy(eV) XS(b)
1.00000E-05 54.1436
1.25000E-05 48.9070
1.50000E-05 45.0414
2.00000E-05 39.6155
2.75000E-05 34.4527
3.50000E-05 31.0549
4.25000E-05 28.6020
5.00000E-05 26.7242
6.25000E-05 24.3823
7.50000E-05 22.6536
0.000100000 20.2271
0.000125000 18.5711
0.000150000 17.3487
0.000200000 15.6328
0.000275000 14.0002
0.000350000 12.9258
0.000425000 12.1501
0.000500000 11.5563
0.000625000 10.8157
0.000750000 10.2690
0.00100000 9.50164
0.00125000 8.97796
0.00150000 8.59140
0.00200000 8.04878
0.00275000 7.53248
0.00350000 7.19268
0.00425000 6.94737
0.00500000 6.75957
0.00625000 6.52534
0.00750000 6.35244
0.0100000 6.10973
0.0125000 5.94409
0.0150000 5.82181
0.0200000 5.65014
0.0253000 5.52707
0.0314750 5.42497
0.0376500 5.34914
0.0500000 5.24208
0.0625000 5.16788
0.0750000 5.11308
0.100000 5.03609
0.125000 4.98348
0.150000 4.94459
0.200000 4.88990
0.275000 4.83765
0.350000 4.80308
0.500000 4.75866
0.750000 4.71620
1.00000 4.69027
1.50000 4.65830
2.00000 4.63810
2.75000 4.61737
3.50000 4.60238
5.00000 4.58056
7.50000 4.55493
10.0000 4.53528
15.0000 4.50408
20.0000 4.47857
27.5000 4.44631
35.0000 4.41873
50.0000 4.37268
75.0000 4.31257
100.000 4.26462
125.000 4.22368
150.000 4.18684
200.000 4.11828
264.133 4.02644
296.199 3.97245
328.266 3.90717
360.332 3.82123
376.365 3.76432
392.398 3.69060
408.432 3.58622
416.448 3.51280
424.465 3.41316
428.473 3.34750
432.481 3.26538
436.490 3.15876
440.498 3.01370
442.502 2.91948
444.506 2.80489
446.510 2.66416
448.515 2.49371
449.517 2.40053
450.519 2.31213
451.521 2.25524
452.523 2.31125
453.024 2.45162
453.525 2.76417
454.026 3.43305
454.276 4.02269
454.402 4.42149
454.527 4.91439
454.652 5.52925
454.715 5.89364
454.778 6.30265
454.840 6.76449
454.903 7.28587
454.965 7.87726
455.028 8.55041
455.153 10.2036
455.279 12.3995
455.404 15.3830
455.529 19.5341
455.654 25.5024
455.780 34.4101
455.905 48.4078
456.030 71.8570
456.093 89.8889
456.155 114.882
456.218 150.744
456.281 204.310
456.343 288.439
456.406 427.799
456.468 672.934
456.531 1117.53
456.594 1833.83
456.657 2352.76
456.720 1932.15
456.783 1239.09
456.822 926.056
456.861 704.474
456.940 437.486
457.018 295.869
457.097 213.792
457.175 162.445
457.253 128.298
457.410 87.1602
457.567 64.1750
457.724 49.9914
458.037 33.9749
458.351 25.5066
458.664 20.4287
458.978 17.1094
459.291 14.8009
459.918 11.8458
460.545 10.0658
461.172 8.89170
461.799 8.06596
463.053 6.99070
464.308 6.32708
465.562 5.87917
466.816 5.55734
469.324 5.12612
471.832 4.84995
474.340 4.65699
476.848 4.51361
481.865 4.31220
486.881 4.17522
489.389 4.12272
491.897 4.08282
493.151 4.07333
493.778 4.07559
494.405 4.08888
495.032 4.12895
495.346 4.17312
495.659 4.25573
495.816 4.32523
495.973 4.42982
496.130 4.59673
496.286 4.88486
496.443 5.44424
496.522 5.94340
496.600 6.74567
496.678 8.15187
496.757 10.9178
496.796 13.3898
496.835 17.3081
496.874 23.8143
496.913 34.7702
496.957 53.2516
497.000 65.5288
497.043 53.2084
497.087 34.7365
497.132 22.4653
497.178 15.8013
497.223 12.0412
497.269 9.77732
497.315 8.32622
497.360 7.35139
497.451 6.16787
497.542 5.50714
497.633 5.10315
497.815 4.65525
497.997 4.42532
498.179 4.29146
498.361 4.20631
498.543 4.14847
498.908 4.07619
499.272 4.03338
500.000 3.98455
501.052 3.94633
502.104 3.92129
504.207 3.88416
508.415 3.82534
516.829 3.72354
533.659 3.52931
550.488 3.31002
567.318 3.02445
575.732 2.83776
584.147 2.60475
592.562 2.30408
600.976 1.90258
605.184 1.64977
609.391 1.35498
613.598 1.02106
617.806 0.687135
619.909 0.567651
620.961 0.542200
621.487 0.543697
622.013 0.557940
622.539 0.588187
622.802 0.610557
623.065 0.638541
623.591 0.714259
624.117 0.822101
624.643 0.970841
625.169 1.17199
625.695 1.44079
626.220 1.79774
626.746 2.27083
627.272 2.89849
627.798 3.73515
628.324 4.85898
628.850 6.38508
629.376 8.48766
629.902 11.4390
630.428 15.6815
630.954 21.9693
631.480 31.6558
632.006 47.3654
632.531 74.6644
633.057 126.914
633.320 172.191
633.583 242.153
633.846 356.762
634.109 558.190
634.372 942.354
634.504 1262.35
634.635 1715.86
634.861 2838.38
635.087 3666.51
635.313 3029.03
635.539 1953.85
635.717 1360.97
635.895 978.093
636.073 730.006
636.251 564.214
636.607 366.706
636.963 259.338
637.319 194.800
637.675 153.000
638.386 103.732
639.098 76.6865
639.810 60.1097
640.522 49.1276
641.234 41.4264
642.658 31.5018
644.081 25.4967
645.505 21.5324
646.929 18.7474
649.776 15.1325
652.623 12.9149
655.471 11.4287
658.318 10.3688
664.013 8.96545
669.707 8.08280
675.402 7.47847
681.097 7.03950
692.486 6.44524
703.876 6.06185
715.265 5.79390
726.654 5.59589
749.433 5.32226
772.212 5.14145
794.991 5.01251
817.770 4.91550
863.327 4.77824
908.885 4.68467
954.442 4.61587
1000.00 4.56245
1062.50 4.50510
1125.00 4.45963
1250.00 4.38939
1375.00 4.33428
1500.00 4.28661
1750.00 4.19844
2000.00 4.10412
2161.90 4.03123
2242.85 3.98867
2323.79 3.94021
2404.74 3.88377
2445.22 3.85168
2485.69 3.81645
2526.17 3.77786
2566.64 3.73740
2586.88 3.71984
2597.00 3.71447
2607.11 3.71551
2612.17 3.72113
2617.23 3.73355
2622.29 3.75874
2627.35 3.81092
2629.88 3.85759
2632.41 3.93101
2634.94 4.05411
2637.47 4.28078
2638.73 4.47239
2640.00 4.76493
2641.26 5.24316
2642.53 6.10303
2643.16 6.81846
2643.79 7.89377
2644.43 9.62401
2645.06 12.6596
2645.38 15.1313
2645.69 18.7581
2646.01 24.4050
2646.32 33.8913
2646.64 51.6226
2646.80 66.8693
2646.96 90.5070
2647.11 129.738
2647.27 200.828
2647.35 259.207
2647.43 344.328
2647.51 471.257
2647.59 660.351
2647.70 1056.23
2647.82 1317.15
2647.93 1052.29
2648.05 659.831
2648.17 398.402
2648.29 256.022
2648.41 175.705
2648.53 127.368
2648.65 96.4520
2648.77 75.6393
2649.01 50.3944
2649.25 36.3338
2649.49 27.7409
2649.96 18.2611
2650.44 13.4164
2650.92 10.6268
2651.40 8.87013
2651.88 7.69771
2652.84 6.27467
2653.80 5.47794
2654.76 4.98732
2655.72 4.66380
2657.64 4.27648
2659.56 4.06182
2661.47 3.92984
2663.39 3.84241
2667.23 3.73616
2671.06 3.67632
2672.98 3.65774
2674.90 3.65116
2675.86 3.66084
2676.82 3.70563
2677.30 3.77492
2677.54 3.84493
2677.78 3.97033
2678.02 4.22765
2678.14 4.46902
2678.26 4.87742
2678.38 5.64541
2678.44 6.30797
2678.50 7.33674
2678.56 9.04497
2678.62 12.1362
2678.65 14.6679
2678.68 18.3468
2678.71 23.8050
2678.74 31.5628
2678.78 48.8148
2678.83 60.1700
2678.87 48.8132
2678.92 32.0740
2678.96 21.4611
2679.00 15.3904
2679.04 11.8307
2679.09 9.62668
2679.13 8.18686
2679.17 7.20157
2679.26 5.98521
2679.35 5.29483
2679.43 4.86678
2679.60 4.38811
2679.77 4.13750
2679.95 3.99118
2680.29 3.83348
2680.98 3.70783
2681.66 3.65767
2683.03 3.61445
2684.41 3.59370
2687.15 3.56976
2689.90 3.55335
2700.88 3.50541
2711.86 3.46387
2722.84 3.42118
2733.82 3.37383
2744.80 3.31849
2750.29 3.28678
2755.78 3.25279
2758.53 3.23674
2761.27 3.22780
2762.65 3.23475
2764.02 3.27560
2764.70 3.34217
2765.05 3.41048
2765.39 3.53503
2765.73 3.79428
2765.91 4.04299
2766.08 4.47053
2766.25 5.30856
2766.33 6.06145
2766.42 7.26414
2766.51 9.40961
2766.59 13.6932
2766.63 17.5822
2766.68 23.8449
2766.72 34.4646
2766.76 52.3087
2766.81 82.2634
2766.85 101.731
2766.90 81.7137
2766.94 52.4911
2766.99 34.6350
2767.03 24.1814
2767.07 17.9392
2767.11 14.0995
2767.20 9.70355
2767.28 7.50134
2767.36 6.22849
2767.45 5.44679
2767.61 4.56192
2767.78 4.10295
2767.95 3.83457
2768.28 3.54909
2768.61 3.40646
2768.95 3.32457
2769.61 3.23634
2770.95 3.16053
2772.28 3.12222
2774.95 3.07030
2777.62 3.02402
2782.96 2.91975
2788.30 2.77868
2790.97 2.68453
2793.63 2.56561
2796.30 2.40999
2798.97 2.19751
2800.31 2.05982
2801.64 1.89360
2802.98 1.69234
2804.31 1.45636
2804.98 1.33365
2805.65 1.22715
2806.31 1.18175
2806.98 1.32469
2807.31 1.57035
2807.65 2.06795
2807.81 2.47821
2807.98 3.05925
2808.15 3.89089
2808.31 5.09196
2808.48 6.88768
2808.65 9.64127
2808.82 14.0363
2808.98 21.3771
2809.07 27.0373
2809.15 34.7047
2809.23 45.6197
2809.32 61.2393
2809.40 84.9201
2809.48 121.237
2809.57 179.281
2809.65 272.838
2809.76 464.077
2809.87 618.639
2809.98 528.211
2810.08 350.924
2810.17 245.787
2810.26 178.705
2810.35 134.837
2810.44 105.852
2810.62 71.0215
2810.80 52.0333
2810.98 40.4318
2811.16 32.8707
2811.51 23.7779
2811.87 18.6704
2812.23 15.4706
2812.58 13.3079
2812.94 11.7626
2813.66 9.72278
2814.37 8.45099
2815.08 7.58934
2815.80 6.97006
2817.23 6.14343
2818.65 5.61919
2820.08 5.25793
2821.51 4.99403
2824.37 4.63389
2827.22 4.39898
2830.08 4.23273
2832.93 4.10816
2838.65 3.93260
2841.50 3.86855
2844.36 3.81642
2847.22 3.77726
2850.07 3.76318
2851.50 3.78443
2852.21 3.81597
2852.93 3.88138
2853.64 4.03002
2854.00 4.17984
2854.36 4.45028
2854.53 4.67481
2854.71 5.00852
2854.89 5.54120
2855.07 6.45364
2855.25 8.23394
2855.34 9.81616
2855.43 12.3647
2855.52 16.9017
2855.61 25.7925
2855.65 33.8899
2855.69 46.5026
2855.74 68.0975
2855.78 104.099
2855.83 165.358
2855.88 205.239
2855.93 164.136
2855.98 104.242
2856.02 68.8584
2856.06 48.1085
2856.11 35.1419
2856.15 27.0751
2856.23 17.8269
2856.32 13.0789
2856.40 10.3489
2856.49 8.64370
2856.66 6.72789
2856.83 5.72372
2857.00 5.13920
2857.17 4.76537
2857.33 4.51439
2857.67 4.20455
2858.01 4.02867
2858.69 3.84397
2859.37 3.75168
2860.05 3.69733
2861.41 3.63519
2864.12 3.57248
2866.83 3.53354
2872.26 3.47471
2877.69 3.42475
2888.54 3.33390
2899.39 3.24613
2910.25 3.15588
2921.10 3.05957
2926.53 3.00915
2931.96 2.96098
2934.67 2.94348
2937.38 2.94801
2938.74 2.98118
2939.42 3.02173
2940.10 3.10130
2940.78 3.27711
2941.12 3.45175
2941.45 3.76448
2941.62 4.02277
2941.79 4.40499
2941.96 5.01253
2942.13 6.04715
2942.30 8.05126
2942.39 9.83171
2942.47 12.6443
2942.56 17.5851
2942.64 27.2164
2942.68 35.8669
2942.73 49.1232
2942.77 70.7031
2942.81 106.282
2942.86 168.582
2942.91 208.776
2942.96 167.083
2943.00 106.090
2943.05 68.5899
2943.09 46.6595
2943.14 33.5841
2943.18 25.5424
2943.27 16.4403
2943.36 11.8216
2943.45 9.18581
2943.54 7.54832
2943.72 5.71077
2943.90 4.75998
2944.07 4.20573
2944.25 3.85461
2944.43 3.61808
2944.79 3.32782
2945.14 3.16330
2945.85 2.99025
2946.57 2.90294
2947.28 2.85051
2948.70 2.78794
2951.55 2.71763
2954.40 2.66946
2957.25 2.63704
2958.68 2.63310
2960.10 2.64985
2961.53 2.71967
2962.24 2.80440
2962.95 2.97080
2963.31 3.11594
2963.67 3.33954
2964.02 3.70664
2964.38 4.36459
2964.56 4.90966
2964.74 5.71678
2964.91 6.98983
2965.09 9.16364
2965.27 13.3213
2965.36 16.9799
2965.45 22.7858
2965.54 32.7446
2965.63 51.7087
2965.67 68.3129
2965.72 93.1616
2965.76 133.483
2965.80 196.468
2965.86 312.938
2965.91 390.669
2965.97 313.427
2966.02 197.120
2966.07 134.121
2966.11 95.1592
2966.16 69.7455
2966.20 53.3938
2966.29 34.0308
2966.37 23.8615
2966.46 17.8092
2966.54 14.0146
2966.72 9.63866
2966.89 7.31965
2967.06 5.95958
2967.24 5.08933
2967.41 4.49858
2967.76 3.76779
2968.10 3.35035
2968.45 3.08702
2968.80 2.90878
2969.49 2.68575
2970.18 2.55237
2971.57 2.39545
2972.95 2.29696
2974.34 2.22067
2977.11 2.09000
2979.88 1.96297
2982.65 1.82730
2988.19 1.50435
2990.96 1.30655
2993.73 1.07903
2996.50 0.823816
2999.27 0.568891
3000.66 0.474305
3002.04 0.454489
3002.74 0.501857
3003.43 0.616989
3004.12 0.840338
3004.81 1.23893
3005.16 1.53918
3005.51 1.93362
3005.85 2.45605
3006.20 3.14763
3006.55 4.07597
3006.89 5.32877
3007.24 7.04829
3007.58 9.45198
3007.93 12.9020
3008.28 17.9686
3008.62 25.7014
3008.97 38.0545
3009.32 59.0478
3009.66 97.2141
3009.83 128.304
3010.01 172.992
3010.18 238.256
3010.35 333.404
3010.64 569.859
3010.93 762.593
3011.22 652.558
3011.50 433.797
3011.74 302.431
3011.98 218.280
3012.22 164.230
3012.46 128.414
3012.94 85.6616
3013.42 62.3956
3013.90 48.2766
3014.38 39.0589
3015.34 28.0207
3016.30 21.8162
3017.26 17.9288
3018.22 15.2997
3019.17 13.4212
3021.09 10.9344
3023.01 9.38007
3024.93 8.32318
3026.84 7.56037
3030.68 6.53460
3034.51 5.87616
3038.35 5.41518
3042.18 5.07201
3049.85 4.58690
3057.52 4.24981
3061.35 4.11425
3065.19 3.99737
3067.11 3.94972
3069.02 3.92375
3069.98 3.93794
3070.94 4.02598
3071.42 4.16706
3071.66 4.30966
3071.90 4.56396
3072.14 5.08166
3072.26 5.56358
3072.38 6.36457
3072.50 7.86588
3072.56 9.15006
3072.62 11.1287
3072.68 14.3818
3072.74 20.1900
3072.80 31.6344
3072.83 41.5092
3072.86 55.5056
3072.90 86.4578
3072.95 107.296
3072.99 86.5391
3073.04 55.5504
3073.07 40.0582
3073.11 29.9115
3073.14 23.2089
3073.17 18.6667
3073.24 13.2040
3073.30 10.2254
3073.37 8.44450
3073.44 7.30154
3073.57 5.97786
3073.70 5.26747
3073.83 4.84833
3074.10 4.39375
3074.36 4.16314
3074.63 4.02951
3075.15 3.88422
3076.21 3.75785
3077.27 3.69432
3079.38 3.61314
3081.50 3.54942
3085.73 3.43447
3089.95 3.32287
3094.18 3.20937
3098.41 3.09190
3100.53 3.03256
3102.64 2.97821
3103.70 2.96047
3104.76 2.97168
3105.28 3.01657
3105.81 3.16716
3106.08 3.37686
3106.21 3.57619
3106.34 3.91677
3106.47 4.56443
3106.54 5.12917
3106.61 6.01574
3106.67 7.51162
3106.74 10.2872
3106.77 12.6204
3106.80 16.0983
3106.84 21.4283
3106.87 29.6170
3106.91 45.9044
3106.96 56.4575
3107.00 45.5693
3107.05 29.6782
3107.08 20.8972
3107.12 15.3995
3107.16 11.9297
3107.19 9.71268
3107.26 7.08227
3107.33 5.68957
3107.40 4.86318
3107.48 4.34797
3107.62 3.75669
3107.76 3.44116
3107.90 3.25461
3108.19 3.04998
3108.76 2.87742
3109.33 2.79915
3110.46 2.71167
3111.60 2.64904
3113.88 2.53660
3116.16 2.42110
3120.72 2.15482
3125.27 1.81360
3127.55 1.60272
3129.83 1.35791
3132.11 1.07794
3134.38 0.782302
3135.52 0.655379
3136.66 0.587620
3137.23 0.601620
3137.80 0.673890
3138.37 0.840690
3138.94 1.16253
3139.22 1.41317
3139.51 1.74932
3139.79 2.19972
3140.08 2.80245
3140.36 3.61983
3140.65 4.73570
3140.93 6.27945
3141.22 8.44357
3141.50 11.5674
3141.79 16.1917
3142.07 23.2853
3142.36 34.6200
3142.64 53.9426
3142.93 89.1057
3143.07 118.000
3143.21 159.288
3143.35 219.560
3143.49 307.366
3143.73 527.251
3143.97 706.860
3144.21 606.133
3144.45 403.674
3144.63 288.970
3144.82 213.029
3145.00 162.836
3145.19 128.713
3145.56 87.2563
3145.92 64.2114
3146.29 50.0191
3146.66 40.6485
3147.40 29.3459
3148.14 22.9390
3148.88 18.9086
3149.62 16.1720
3150.36 14.2092
3151.84 11.6047
3153.32 9.97185
3154.80 8.85965
3156.28 8.05643
3159.23 6.97463
3162.19 6.27993
3165.15 5.79408
3168.10 5.43315
3174.02 4.92646
3179.93 4.57999
3191.76 4.11315
3203.59 3.78522
3215.42 3.51598
3239.08 3.02346
3262.74 2.46620
3274.57 2.11466
3286.39 1.67513
3292.31 1.40900
3298.22 1.10480
3304.14 0.763052
3310.05 0.411425
3313.01 0.266366
3314.49 0.217796
3315.97 0.198335
3317.45 0.224684
3318.92 0.323334
3319.66 0.412487
3320.40 0.537745
3321.14 0.709351
3321.88 0.940731
3322.62 1.25035
3323.36 1.66182
3324.10 2.21003
3324.84 2.94082
3325.58 3.92395
3326.32 5.25577
3327.06 7.08586
3327.80 9.64356
3328.54 13.3017
3329.28 18.6624
3330.01 26.7980
3330.75 39.6836
3331.49 61.2571
3332.23 99.7577
3332.97 173.951
3333.34 236.177
3333.71 324.659
3335.03 756.092
3335.48 718.838
3335.59 693.137
3335.70 669.129
3335.81 659.271
3335.87 671.162
3335.92 709.390
3335.98 776.673
3336.03 816.680
3336.08 741.059
3336.13 638.842
3336.19 567.914
3336.24 521.697
3336.29 487.980
3336.34 462.194
3336.43 427.546
3336.51 399.399
3336.68 352.943
3337.02 282.135
3337.36 230.327
3337.70 191.541
3338.39 138.685
3339.07 105.799
3339.75 84.0229
3340.43 68.9163
3341.79 49.7932
3343.15 38.5137
3344.52 31.2501
3347.24 22.6370
3349.97 17.8138
3352.69 14.7782
3355.42 12.7056
3358.14 11.2040
3363.59 9.16912
3369.04 7.84152
3371.77 7.33438
3374.49 6.91384
3375.86 6.75008
3376.54 6.69318
3377.22 6.67276
3377.90 6.73852
3378.24 6.84843
3378.58 7.07959
3378.92 7.60095
3379.09 8.11216
3379.26 9.00349
3379.43 10.7535
3379.52 12.3079
3379.60 14.8029
3379.69 19.1469
3379.77 27.6033
3379.82 35.1833
3379.86 46.7760
3379.90 66.1857
3379.94 97.8800
3379.99 152.867
3380.04 189.900
3380.09 153.028
3380.14 98.0784
3380.19 61.4284
3380.24 41.5567
3380.29 30.3123
3380.34 23.5271
3380.40 19.1773
3380.45 16.2424
3380.55 12.6714
3380.65 10.6579
3380.75 9.43498
3380.96 8.06894
3381.16 7.35564
3381.37 6.93508
3381.78 6.46853
3382.18 6.21634
3382.59 6.05378
3383.41 5.84152
3384.23 5.69193
3385.05 5.56877
3386.68 5.35715
3389.95 4.98568
3393.22 4.63809
3399.76 3.94771
3406.30 3.19693
3412.85 2.30251
3416.12 1.77610
3419.39 1.20569
3422.66 0.697732
3423.48 0.625460
3424.29 0.607073
3425.11 0.676754
3425.93 0.891895
3426.34 1.08324
3426.75 1.35424
3427.15 1.73126
3427.56 2.25121
3427.97 2.96683
3428.38 3.95526
3428.79 5.33238
3429.20 7.27222
3429.61 10.0728
3430.02 14.2167
3430.43 20.5683
3430.83 30.7379
3431.24 48.1465
3431.65 80.4381
3431.86 107.404
3432.06 146.885
3432.26 206.308
3432.47 296.118
3433.06 651.707
3433.21 633.303
3433.35 551.784
3433.65 351.608
3433.90 231.322
3434.15 156.134
3434.40 108.924
3434.65 78.1773
3434.90 57.0667
3435.15 42.0983
3435.40 31.0574
3435.65 22.8444
3435.90 16.7651
3436.14 12.6823
3436.27 11.4455
3436.39 10.8709
3436.52 11.1252
3436.64 12.4567
3436.71 13.6667
3436.77 15.2973
3436.83 17.4912
3436.89 20.2903
3436.96 23.9289
3437.02 28.4709
3437.14 41.3864
3437.27 61.9795
3437.39 94.7016
3437.52 146.814
3437.64 227.780
3437.85 447.088
3437.96 564.342
3438.06 631.197
3438.27 561.235
3438.48 404.461
3438.71 281.759
3438.93 207.548
3439.16 161.299
3439.38 130.825
3439.84 94.1947
3440.29 73.5732
3440.74 60.4934
3441.19 51.5517
3442.10 40.1451
3443.00 33.1949
3443.91 28.5337
3445.72 22.6731
3447.53 19.1441
3449.33 16.7875
3452.95 13.8374
3456.57 12.0631
3460.19 10.8757
3467.42 9.37873
3474.66 8.46528
3481.90 7.84335
3496.37 7.03819
3510.84 6.52825
3525.31 6.16842
3554.26 5.67910
3583.20 5.34687
3612.14 5.09354
3626.62 4.98447
3641.09 4.88362
3648.32 4.83634
3655.56 4.79329
3659.18 4.77652
3662.80 4.77264
3664.61 4.78813
3666.41 4.85259
3667.32 4.95060
3667.77 5.04948
3668.22 5.22872
3668.68 5.60303
3668.90 5.96205
3669.13 6.58791
3669.35 7.82510
3669.47 8.95343
3669.58 10.8146
3669.69 14.1969
3669.75 17.0505
3669.81 21.2670
3669.86 28.0985
3669.92 39.5248
3669.98 60.9098
3670.03 101.750
3670.08 159.718
3670.13 198.775
3670.18 159.723
3670.23 101.753
3670.27 69.3140
3670.32 49.0566
3670.36 36.4996
3670.40 28.5618
3670.48 19.3098
3670.56 14.4866
3670.65 11.6604
3670.73 9.90937
3670.90 7.92089
3671.06 6.87580
3671.23 6.26692
3671.56 5.61621
3671.90 5.29501
3672.23 5.11285
3672.89 4.92368
3673.56 4.83099
3674.23 4.77783
3675.56 4.71978
3678.22 4.66661
3680.88 4.63664
3686.20 4.59294
3691.53 4.55499
3702.18 4.48207
3712.83 4.40815
3734.12 4.24785
3755.42 4.05448
3776.72 3.79116
3787.36 3.60788
3798.01 3.35900
3803.34 3.19462
3808.66 2.98879
3813.98 2.72170
3819.31 2.35992
3821.97 2.12685
3824.63 1.84629
3827.29 1.50780
3829.96 1.11085
3831.29 0.903636
3832.62 0.720113
3833.95 0.629508
3834.62 0.669557
3835.28 0.824286
3835.95 1.18213
3836.28 1.48450
3836.61 1.90903
3836.94 2.50656
3837.28 3.34748
3837.61 4.54013
3837.94 6.24753
3838.28 8.75258
3838.61 12.5111
3838.94 18.3364
3839.27 27.7165
3839.61 43.7539
3839.94 73.0298
3840.11 96.8975
3840.27 130.833
3840.44 179.981
3840.60 250.941
3840.89 436.767
3841.18 592.628
3841.47 513.388
3841.76 346.626
3842.10 218.119
3842.43 148.289
3842.59 126.742
3842.76 112.377
