Cd-111(n,tot) ENDF/B-VII.1
Energy(eV) XS(b)
1.00000E-05 351.455
1.25000E-05 314.942
1.50000E-05 287.989
2.00000E-05 250.155
2.75000E-05 214.157
3.50000E-05 190.466
4.25000E-05 173.363
5.00000E-05 160.269
6.25000E-05 143.940
7.50000E-05 131.886
0.000100000 114.967
0.000125000 103.420
0.000150000 94.8966
0.000200000 82.9325
0.000275000 71.5487
0.000350000 64.0567
0.000425000 58.6481
0.000500000 54.5075
0.000625000 49.3436
0.000750000 45.5317
0.00100000 40.1810
0.00125000 36.5294
0.00150000 33.8339
0.00200000 30.0502
0.00275000 26.4498
0.00350000 24.0802
0.00425000 22.3695
0.00500000 21.0598
0.00625000 19.4263
0.00750000 18.2203
0.0100000 16.5274
0.0125000 15.3718
0.0150000 14.5187
0.0200000 13.3208
0.0253000 12.4618
0.0314750 11.7490
0.0376500 11.2194
0.0500000 10.4714
0.0625000 9.95258
0.0750000 9.56915
0.100000 9.02993
0.125000 8.66095
0.150000 8.38780
0.200000 8.00273
0.275000 7.63349
0.350000 7.38799
0.500000 7.07021
0.750000 6.76256
1.00000 6.57159
1.50000 6.33145
2.00000 6.17643
2.62038 6.03981
3.24075 5.94064
3.86113 5.88887
4.17131 5.95592
4.24886 6.02786
4.32641 6.18122
4.40395 6.55864
4.44273 6.96014
4.48150 7.66287
4.52225 8.80866
4.56300 9.58383
4.60375 8.82970
4.64450 7.68156
4.68894 6.89188
4.73338 6.46819
4.77781 6.23072
4.82225 6.08741
4.91113 5.93117
5.00000 5.85100
5.23539 5.75398
5.47078 5.70790
5.94155 5.65571
6.41233 5.64500
6.64771 5.72235
6.70656 5.78918
6.76541 5.92174
6.82425 6.22029
6.85368 6.51193
6.88310 6.98416
6.91885 7.84246
6.95460 8.41983
6.99035 7.85080
7.02610 6.98951
7.07257 6.32170
7.11904 6.00261
7.16550 5.83789
7.21197 5.74364
7.30490 5.64520
7.39784 5.59602
7.76958 5.51843
8.51305 5.45417
10.0000 5.36512
12.5000 5.24602
15.0000 5.14954
17.5000 5.07310
20.0000 5.02868
21.8755 5.05367
22.8133 5.12077
23.7510 5.28551
24.2199 5.44587
24.6888 5.71154
25.1576 6.17839
25.6265 7.07606
25.8609 7.85575
26.0954 9.06662
26.3298 11.0747
26.5643 14.7246
26.6815 17.7649
26.7987 22.3323
26.9159 29.6166
27.0331 42.2171
27.1504 66.7038
27.2090 88.5542
27.2676 123.675
27.3262 184.930
27.3555 233.898
27.3848 304.369
27.4141 409.986
27.4434 575.315
27.4727 845.226
27.5020 1291.94
27.5360 2076.42
27.5700 2609.64
27.5870 2463.71
27.6040 2101.13
27.6380 1322.87
27.6598 968.650
27.6817 723.264
27.7254 435.148
27.7690 286.698
27.8127 202.592
27.8564 150.932
27.9001 117.133
27.9874 77.2025
28.0748 55.4673
28.1621 42.3531
28.2495 33.8319
28.3368 27.9794
28.5115 20.6679
28.6862 16.4331
28.8609 13.7531
29.0356 11.9443
29.3850 9.71858
29.7344 8.44328
30.0839 7.63853
30.4333 7.09446
31.1321 6.41960
31.8309 6.02606
32.5297 5.77204
33.2285 5.59572
34.6261 5.36754
36.0238 5.22538
38.8190 5.05327
41.6143 4.94729
44.4095 4.87101
50.0000 4.75954
54.8812 4.68341
59.7625 4.61598
64.6437 4.55268
65.8640 4.53867
67.0843 4.53050
67.6945 4.53552
67.9995 4.54555
68.3046 4.56831
68.6097 4.62302
68.7622 4.67956
68.9148 4.78245
69.0673 4.99380
69.1436 5.19150
69.2198 5.52363
69.2961 6.13901
69.3342 6.66067
69.3724 7.45482
69.4105 8.73677
69.4486 10.9583
69.4868 15.1344
69.5249 23.4186
69.5575 35.0843
69.5900 43.1184
69.6226 35.6971
69.6551 24.1838
69.6873 16.7925
69.7194 12.5958
69.7516 10.1480
69.7837 8.63821
69.8159 7.65341
69.8480 6.98020
69.9123 6.14867
69.9767 5.67574
70.0410 5.38155
70.1696 5.04924
70.2982 4.87477
70.4268 4.77114
70.6841 4.65771
70.9413 4.59870
71.1985 4.56297
71.7130 4.52137
72.7420 4.47914
73.7709 4.45299
75.8288 4.41221
77.8867 4.37498
79.9446 4.34007
80.9736 4.32670
82.0025 4.32361
83.0315 4.35366
83.5459 4.40440
84.0604 4.51999
84.3176 4.62954
84.5749 4.80850
84.8321 5.11879
85.0894 5.70591
85.2180 6.20833
85.3466 6.97748
85.4752 8.22828
85.6038 10.4381
85.7325 14.8405
85.7968 18.8542
85.8611 25.4339
85.9254 37.2134
85.9575 46.8641
85.9897 61.0727
86.0219 82.9986
86.0540 118.672
86.0862 179.976
86.1022 226.552
86.1183 288.032
86.1350 369.464
86.1517 463.167
86.1850 584.058
86.2017 552.914
86.2184 473.198
86.2517 300.564
86.2774 208.906
86.3031 149.883
86.3289 111.727
86.3546 86.3033
86.4060 56.1958
86.4574 40.0005
86.5089 30.3771
86.5603 24.2176
86.6632 17.0806
86.7661 13.2565
86.8689 10.9658
86.9718 9.48146
87.0747 8.46198
87.2804 7.18405
87.4861 6.43774
87.6919 5.96022
87.8976 5.63381
88.3091 5.22368
88.7206 4.98069
89.5435 4.70914
90.3665 4.56006
91.1894 4.46349
92.8353 4.34262
93.6583 4.30610
94.4812 4.28923
95.3042 4.30843
96.1271 4.41127
96.5386 4.53271
96.9501 4.75235
97.3615 5.16495
97.7730 6.00113
97.9787 6.74982
98.1845 7.93386
98.3902 9.92758
98.5960 13.5935
98.6988 16.6631
98.8017 21.2801
98.9046 28.6306
99.0074 41.2643
99.0589 51.2342
99.1103 65.4577
99.1617 86.6517
99.2132 119.988
99.2646 176.265
99.2903 219.756
99.3160 280.340
99.3418 367.370
99.3675 496.194
99.3932 691.926
99.4189 989.515
99.4550 1600.26
99.4910 2023.86
99.5271 1639.44
99.5631 1038.40
99.5904 723.581
99.6177 519.146
99.6450 386.015
99.6723 296.790
99.7269 190.495
99.7816 132.950
99.8362 98.6114
99.8908 76.5639
100.000 50.9363
100.094 38.6400
100.188 30.7957
100.377 21.6919
100.565 16.7788
100.754 13.8116
100.942 11.8729
101.130 10.5352
101.507 8.87154
101.884 7.98439
102.261 7.73168
102.449 8.05190
102.543 8.49171
102.637 9.34018
102.732 11.0747
102.779 12.6375
102.826 15.1301
102.873 19.3807
102.920 27.3078
102.944 33.9873
102.967 43.8743
102.991 58.9429
103.014 81.9644
103.047 129.680
103.080 163.229
103.113 133.268
103.146 86.3950
103.169 63.7764
103.191 48.5023
103.214 38.1980
103.237 31.1142
103.282 22.3819
103.327 17.4965
103.373 14.5112
103.418 12.5570
103.509 10.2328
103.599 8.94488
103.690 8.14746
103.871 7.23146
104.052 6.72563
104.233 6.40394
104.596 6.00990
104.958 5.76881
105.321 5.60023
106.046 5.37098
107.495 5.10245
108.945 4.94178
110.395 4.83229
111.845 4.75558
112.569 4.73102
113.294 4.72908
113.657 4.75422
113.838 4.78538
114.019 4.84508
114.200 4.96981
114.291 5.08614
114.382 5.27968
114.472 5.63256
114.518 5.92684
114.563 6.36814
114.608 7.06631
114.653 8.24460
114.699 10.3789
114.744 14.4086
114.786 20.3171
114.827 24.1914
114.868 20.2437
114.909 14.4095
114.954 10.3760
115.000 8.23742
115.045 7.05505
115.090 6.35297
115.136 5.90790
115.181 5.60994
115.271 5.25021
115.362 5.04957
115.453 4.92630
115.634 4.78798
115.815 4.71473
115.996 4.67009
116.358 4.61788
117.083 4.56467
117.807 4.53187
120.706 4.44116
123.604 4.36475
126.503 4.28921
129.401 4.20897
130.850 4.16657
132.299 4.12535
133.749 4.09839
134.473 4.10615
135.198 4.15920
135.560 4.22487
135.922 4.34606
136.285 4.57688
136.647 5.04885
136.828 5.47317
137.009 6.14471
137.190 7.27609
137.372 9.35156
137.553 13.6852
137.643 17.8047
137.734 24.8235
137.824 38.1173
137.870 49.6139
137.915 67.4106
137.960 96.9237
137.983 119.359
138.006 149.948
138.028 193.115
138.051 255.021
138.073 345.835
138.096 478.761
138.131 775.992
138.166 983.987
138.184 932.398
138.201 797.823
138.236 505.929
138.276 297.445
138.316 188.953
138.356 129.553
138.396 94.4512
138.436 72.1933
138.476 57.3379
138.555 39.3621
138.635 29.3167
138.715 23.1477
138.875 16.2420
139.035 12.6488
139.194 10.5308
139.354 9.17288
139.514 8.25012
139.833 7.12600
140.152 6.57543
140.312 6.50600
140.472 6.72093
140.552 7.09039
140.631 7.92528
140.671 8.72189
140.711 10.0358
140.751 12.3077
140.791 16.3158
140.833 22.8025
140.874 27.1223
140.915 22.7951
140.956 16.3012
141.001 11.7861
141.047 9.37907
141.092 8.03750
141.137 7.23144
141.228 6.35748
141.318 5.91277
141.500 5.47293
141.681 5.24958
142.043 5.00403
142.406 4.85610
143.130 4.66551
143.855 4.53776
145.304 4.36321
146.754 4.23785
149.653 4.03841
152.552 3.85082
154.001 3.75246
155.450 3.65135
156.900 3.55626
158.349 3.50167
159.074 3.52237
159.799 3.62352
160.524 3.90120
161.248 4.60350
161.611 5.30717
161.973 6.49639
162.335 8.62342
162.698 12.7612
162.879 16.3668
163.060 21.9515
163.241 31.1315
163.332 38.0500
163.422 47.4924
163.513 60.8177
163.604 80.3465
163.694 110.405
163.785 159.716
163.875 247.860
163.921 319.824
163.966 425.360
164.011 587.108
164.057 847.788
164.102 1289.49
164.147 2052.19
164.196 3340.43
164.245 4247.79
164.294 3452.04
164.343 2191.09
164.378 1561.21
164.413 1141.58
164.448 861.200
164.482 669.301
164.552 435.437
164.622 306.230
164.691 227.851
164.761 177.024
164.900 117.200
165.040 84.6370
165.179 64.9005
165.318 51.9908
165.457 43.0592
165.736 31.7523
166.015 25.0811
166.293 20.7796
166.572 17.8236
167.129 14.0919
167.686 11.8814
168.243 10.4429
168.800 9.44299
169.915 8.15834
171.029 7.37710
172.143 6.85552
173.257 6.48372
175.486 5.98904
177.714 5.67343
179.943 5.45233
182.172 5.28666
186.629 5.04822
191.086 4.87546
195.543 4.73443
200.000 4.61227
200.893 4.59366
201.787 4.58722
202.233 4.59999
202.457 4.61825
202.680 4.65515
202.903 4.73548
203.015 4.81262
203.126 4.94406
203.238 5.19212
203.294 5.40579
203.350 5.73689
203.406 6.28624
203.461 7.27504
203.517 9.25179
203.545 10.9830
203.573 13.5409
203.615 19.0007
203.656 22.6268
203.697 19.0147
203.738 13.6051
203.776 10.2975
203.814 8.36281
203.853 7.20895
203.891 6.48605
203.967 5.68212
204.044 5.27540
204.120 5.04270
204.196 4.89764
204.349 4.73342
204.502 4.64657
204.655 4.59437
204.960 4.53543
205.571 4.48139
206.182 4.45479
206.793 4.44351
207.404 4.46168
207.710 4.50562
207.862 4.55255
208.015 4.63737
208.168 4.80719
208.244 4.96106
208.321 5.21047
208.397 5.65110
208.473 6.52520
208.512 7.31234
208.550 8.56904
208.588 10.6763
208.626 14.2700
208.668 20.2807
208.709 24.3258
208.751 20.3122
208.792 14.2924
208.824 11.1583
208.856 9.15172
208.887 7.86019
208.919 7.00258
208.983 5.99213
209.046 5.45227
209.110 5.13241
209.174 4.92836
209.301 4.69256
209.428 4.56571
209.555 4.48889
209.809 4.40200
210.063 4.35381
210.318 4.32202
210.826 4.27893
211.843 4.21888
212.860 4.16655
214.894 4.05871
216.929 3.93592
218.963 3.79746
219.980 3.73171
220.997 3.69435
221.505 3.70752
222.014 3.77216
222.522 3.94668
223.031 4.37886
223.285 4.80488
223.540 5.51590
223.794 6.76962
224.048 9.16950
224.175 11.2350
224.302 14.3974
224.429 19.5277
224.557 28.5260
224.620 35.7478
224.684 46.1901
224.747 61.9890
224.811 87.2683
224.874 131.048
224.906 165.652
224.938 214.676
224.970 287.040
225.002 397.606
225.033 572.180
225.065 848.580
225.106 1376.00
225.146 1746.60
225.187 1424.26
225.227 908.412
225.259 627.236
225.291 447.378
225.323 331.140
225.354 254.103
225.418 162.908
225.482 113.926
225.545 84.7371
225.609 66.0392
225.736 44.2690
225.864 32.5290
225.991 25.4482
226.118 20.8276
226.246 17.6314
226.500 13.5836
226.755 11.1873
227.009 9.63258
227.264 8.55514
227.773 7.17558
228.283 6.33963
229.301 5.40559
229.810 5.15637
230.320 5.04423
230.829 5.13901
231.338 5.65918
231.593 6.25538
231.847 7.30516
232.102 9.21968
232.357 12.9652
232.484 16.2204
232.611 21.2246
232.739 29.3560
232.802 35.4166
232.866 43.5925
232.930 54.9720
232.993 71.3097
233.057 95.8621
233.120 134.672
233.184 200.629
233.216 251.668
233.248 322.875
233.280 425.547
233.311 577.127
233.343 807.031
233.375 1156.19
233.421 1892.24
233.466 2413.69
233.511 1973.92
233.556 1266.60
233.597 831.235
233.638 570.084
233.679 411.051
233.720 309.872
233.803 194.740
233.885 135.110
233.967 100.343
234.049 78.3510
234.213 53.0047
234.378 39.4184
234.542 31.2300
234.706 25.8763
234.870 22.1606
235.199 17.4285
235.528 14.6007
235.856 12.7507
236.185 11.4594
236.842 9.79304
237.499 8.77463
238.156 8.09197
238.814 7.60376
240.128 6.95217
241.442 6.53616
242.757 6.24600
244.071 6.03081
246.700 5.72951
249.328 5.52440
254.586 5.24949
259.843 5.05194
262.472 4.96136
265.101 4.86669
267.729 4.75819
269.044 4.69481
270.358 4.62444
271.015 4.58845
271.672 4.55626
272.330 4.53861
272.987 4.56709
273.315 4.62532
273.644 4.74959
273.972 5.00889
274.301 5.57345
274.465 6.09767
274.630 6.94268
274.794 8.38462
274.958 11.0521
275.123 16.6160
275.205 21.8652
275.287 30.6888
275.328 37.4994
275.369 46.9959
275.410 60.7071
275.451 81.2976
275.492 114.009
275.513 137.726
275.533 168.974
275.554 211.073
275.574 268.071
275.595 346.211
275.615 452.563
275.655 738.721
275.694 943.059
275.714 897.452
275.733 771.921
275.772 495.054
275.815 302.750
275.857 198.086
275.899 138.838
275.941 102.978
275.983 79.8743
276.026 64.1914
276.110 44.9222
276.195 33.9708
276.279 27.1540
276.448 19.4076
276.617 15.2972
276.785 12.8343
276.954 11.2270
277.123 10.1130
277.461 8.69360
277.799 7.84411
278.136 7.28716
278.474 6.89753
279.149 6.39323
279.825 6.08388
280.500 5.87592
281.175 5.72699
282.526 5.52933
283.877 5.41097
284.552 5.37816
284.890 5.37280
285.228 5.38228
285.565 5.42503
285.734 5.47497
285.903 5.56834
286.072 5.75994
286.156 5.93634
286.241 6.22678
286.325 6.74914
286.367 7.17908
286.410 7.81575
286.452 8.80609
286.494 10.4386
286.536 13.2989
286.578 18.4689
286.620 26.4272
286.661 31.7169
286.703 26.4057
286.744 18.4649
286.770 14.9184
286.796 12.4602
286.848 9.55454
286.900 8.04758
286.952 7.19041
287.004 6.66286
287.056 6.31707
287.160 5.90773
287.264 5.68382
287.368 5.54793
287.576 5.39654
287.784 5.31661
287.992 5.26773
288.408 5.21003
288.824 5.17525
289.240 5.15033
290.072 5.11369
291.737 5.06142
293.401 5.02090
296.730 4.95620
300.058 4.90348
303.387 4.85762
306.715 4.81661
308.380 4.79858
310.044 4.78579
310.876 4.78625
311.292 4.79172
311.708 4.80567
312.124 4.84021
312.333 4.87587
312.541 4.94023
312.749 5.07115
312.853 5.19273
312.957 5.39623
313.061 5.77303
313.113 6.09326
313.165 6.58334
313.217 7.38151
313.269 8.78721
313.321 11.5009
313.347 13.7980
313.373 17.0976
313.414 24.5300
313.455 29.4703
313.497 24.5126
313.538 17.0991
313.574 12.8038
313.610 10.2208
313.646 8.63631
313.682 7.62755
313.754 6.48343
313.826 5.89535
313.898 5.55599
313.970 5.34389
314.115 5.10357
314.259 4.97767
314.403 4.90339
314.691 4.82280
314.979 4.78127
315.268 4.75619
315.844 4.72660
316.420 4.70830
316.997 4.69451
318.150 4.67215
320.456 4.63227
322.762 4.59031
325.068 4.54233
326.221 4.51579
327.373 4.48949
327.950 4.47861
328.526 4.47279
329.103 4.47938
329.679 4.51792
329.968 4.56464
330.256 4.64987
330.544 4.81010
330.832 5.13184
330.976 5.41600
331.121 5.85755
331.265 6.58241
331.409 7.86449
331.553 10.3877
331.625 12.6415
331.697 16.2300
331.769 22.3806
331.841 33.9135
331.877 43.6997
331.913 58.2933
331.949 80.6918
331.985 115.169
332.035 186.282
332.085 237.428
332.135 195.379
332.185 126.734
332.221 91.4957
332.257 68.0830
332.294 52.4844
332.330 41.8288
332.402 28.8706
332.475 21.6943
332.547 17.3369
332.619 14.4979
332.764 11.1408
332.909 9.29766
333.054 8.17031
333.343 6.90588
333.633 6.23881
333.923 5.83784
334.212 5.57462
334.502 5.39108
335.081 5.16095
335.371 5.09379
335.660 5.06093
335.950 5.08965
336.095 5.15511
336.240 5.30042
336.384 5.63341
336.457 5.96013
336.529 6.52170
336.602 7.57795
336.638 8.47809
336.674 9.84892
336.710 12.0522
336.746 15.8329
336.783 22.8063
336.819 36.2550
336.852 56.3392
336.885 70.6927
336.917 58.7338
336.950 39.3234
336.988 25.2400
337.025 17.8147
337.063 13.7192
337.100 11.2882
337.138 9.73513
337.175 8.69145
337.250 7.41474
337.325 6.69216
337.400 6.24121
337.550 5.72507
337.699 5.44633
337.849 5.27481
338.149 5.07599
338.448 4.96302
338.748 4.88837
339.347 4.79115
340.546 4.67571
341.744 4.59628
344.141 4.46555
346.538 4.33184
347.737 4.25491
348.935 4.16686
350.134 4.06480
351.332 3.95007
351.932 3.89346
352.531 3.84881
353.130 3.84290
353.729 3.95228
354.029 4.11377
354.329 4.43253
354.628 5.06859
354.928 6.41196
355.078 7.63760
355.227 9.58961
355.377 12.8780
355.452 15.3955
355.527 18.8700
355.602 23.8132
355.677 31.1166
355.752 42.4357
355.827 61.1044
355.864 75.2474
355.901 94.5735
355.939 121.943
355.976 161.903
356.014 223.081
356.051 320.753
356.089 484.969
356.126 764.709
356.168 1253.65
356.210 1605.46
356.252 1316.83
356.294 845.201
356.326 592.625
356.358 428.503
356.390 321.219
356.422 249.023
356.486 162.562
356.550 115.378
356.614 86.9614
356.678 68.5985
356.806 47.0101
356.934 35.2128
357.062 28.0284
357.190 23.2940
357.318 19.9955
357.574 15.7773
357.831 13.2516
358.087 11.6000
358.343 10.4495
358.855 8.97217
359.367 8.07734
359.879 7.48380
360.391 7.06418
361.416 6.51369
362.440 6.17080
363.465 5.93754
364.489 5.76882
366.538 5.54116
368.586 5.39472
370.635 5.29290
372.684 5.21878
376.781 5.12457
378.830 5.10073
380.879 5.09820
381.903 5.11031
382.928 5.13852
383.952 5.19568
384.976 5.31227
385.489 5.41519
386.001 5.57555
386.513 5.84151
387.025 6.32484
387.281 6.72835
387.537 7.33718
387.793 8.31663
388.049 10.0386
388.178 11.4361
388.306 13.4892
388.434 16.6848
388.562 22.0380
388.690 32.0169
388.754 40.5573
388.818 53.7396
388.882 75.4781
388.946 114.488
389.010 192.028
389.042 259.566
389.074 358.888
389.122 571.419
389.170 713.161
389.217 571.479
389.265 358.984
389.306 237.915
389.347 164.374
389.388 119.001
389.429 89.8457
389.511 56.6007
389.593 39.4282
389.675 29.4969
389.756 23.2837
389.920 16.2523
390.084 12.5885
390.248 10.4442
390.411 9.08291
390.575 8.16531
390.902 7.04335
391.230 6.40911
391.557 6.01545
391.884 5.75407
392.539 5.43810
393.194 5.26039
393.849 5.14940
394.503 5.07458
395.813 4.98086
397.122 4.92406
398.432 4.88485
399.741 4.85495
402.360 4.80845
404.979 4.76759
406.289 4.74642
406.944 4.73568
407.598 4.72607
408.253 4.72263
408.581 4.72899
408.908 4.75162
409.072 4.77652
409.235 4.82018
409.399 4.89981
409.563 5.05573
409.726 5.39866
409.808 5.73488
409.890 6.31821
409.972 7.43962
410.013 8.41536
410.054 9.93365
410.095 12.4458
410.136 16.9355
410.177 25.7178
410.197 33.2388
410.217 44.0664
410.251 69.4548
410.284 87.7889
410.317 72.9436
410.350 48.5286
410.374 35.7488
410.399 27.2971
410.423 21.7067
410.448 17.9225
410.497 13.3252
410.545 10.7969
410.594 9.26270
410.643 8.26672
410.741 7.08949
410.839 6.44241
410.937 6.04643
411.133 5.60189
411.328 5.36674
411.524 5.22504
411.720 5.13164
411.916 5.06600
412.307 4.98043
412.698 4.92728
413.481 4.86426
414.264 4.82704
415.047 4.80136
416.613 4.76538
418.179 4.73807
419.745 4.71393
420.528 4.70346
420.919 4.70000
421.311 4.70038
421.702 4.71232
421.898 4.73019
422.094 4.76879
422.289 4.85991
422.387 4.95309
422.485 5.12005
422.583 5.45347
422.632 5.75381
422.681 6.23664
422.730 7.07357
422.779 8.66440
422.803 10.0312
422.828 12.0906
422.852 15.3130
422.876 20.3384
422.909 30.4629
422.942 37.7863
422.975 31.8646
423.007 22.1298
423.038 16.0970
423.068 12.5021
423.098 10.3099
423.128 8.91830
423.188 7.33567
423.248 6.51362
423.308 6.03364
423.368 5.72865
423.488 5.37551
423.608 5.18460
423.729 5.06845
423.969 4.93785
424.209 4.86790
424.450 4.82481
424.930 4.77426
425.411 4.74473
425.892 4.72444
426.853 4.69595
428.776 4.65468
430.699 4.61517
432.622 4.56641
433.583 4.53448
434.545 4.49392
435.026 4.46920
435.506 4.44100
435.987 4.40985
436.468 4.38000
436.708 4.37041
436.949 4.37220
437.189 4.40163
437.429 4.50187
437.549 4.61274
437.670 4.80874
437.790 5.17021
437.910 5.88612
438.030 7.48475
438.090 9.06973
438.150 11.8526
438.210 17.2700
438.241 22.0600
438.271 29.5821
438.301 42.2827
438.316 52.0059
438.331 65.4469
