Cd-111(n,g) ENDF/B-VII.1
Energy(eV) XS(b)
1.00000E-05 345.858
1.25000E-05 309.344
1.50000E-05 282.391
2.00000E-05 244.558
2.75000E-05 208.560
3.50000E-05 184.868
4.25000E-05 167.765
5.00000E-05 154.672
6.25000E-05 138.343
7.50000E-05 126.289
0.000100000 109.369
0.000125000 97.8226
0.000150000 89.2993
0.000200000 77.3353
0.000275000 65.9514
0.000350000 58.4595
0.000425000 53.0509
0.000500000 48.9103
0.000625000 43.7464
0.000750000 39.9345
0.00100000 34.5838
0.00125000 30.9323
0.00150000 28.2368
0.00200000 24.4530
0.00275000 20.8527
0.00350000 18.4832
0.00425000 16.7725
0.00500000 15.4628
0.00625000 13.8294
0.00750000 12.6235
0.0100000 10.9308
0.0125000 9.77536
0.0150000 8.92238
0.0200000 7.72480
0.0253000 6.86612
0.0314750 6.15370
0.0376500 5.62450
0.0500000 4.87727
0.0625000 4.35927
0.0750000 3.97663
0.100000 3.43899
0.125000 3.07159
0.150000 2.80001
0.200000 2.41808
0.275000 2.05352
0.350000 1.81268
0.500000 1.50415
0.750000 1.21168
1.00000 1.03564
1.50000 0.824587
2.00000 0.697701
2.62038 0.594755
3.24075 0.527994
3.86113 0.507471
4.17131 0.589727
4.24886 0.665433
4.32641 0.822533
4.40395 1.20368
4.44273 1.60704
4.48150 2.31162
4.52225 3.45934
4.56300 4.23646
4.60375 3.48427
4.64450 2.33807
4.68894 1.55050
4.73338 1.12891
4.77781 0.893535
4.82225 0.752313
4.91113 0.600247
5.00000 0.524215
5.23539 0.438091
5.47078 0.402768
5.94155 0.371735
6.41233 0.381716
6.64771 0.469248
6.70656 0.538612
6.76541 0.673697
6.82425 0.974763
6.85368 1.26766
6.88310 1.74114
6.91885 2.60095
6.95460 3.17984
6.99035 2.61234
7.02610 1.75257
7.07257 1.08673
7.11904 0.769599
7.16550 0.606840
7.21197 0.514550
7.30490 0.420010
7.39784 0.374711
7.76958 0.312532
8.51305 0.278472
10.0000 0.247760
12.5000 0.222859
15.0000 0.220329
17.5000 0.245295
20.0000 0.325004
21.8755 0.480399
22.8133 0.638728
23.7510 0.928741
24.2199 1.17301
24.6888 1.54536
25.1576 2.15374
25.6265 3.24994
25.8609 4.16276
26.0954 5.54106
26.3298 7.76565
26.5643 11.7043
26.6815 14.9266
26.7987 19.7070
26.9159 27.2375
27.0331 40.1051
27.1504 64.8074
27.2090 86.6630
27.2676 121.579
27.3262 182.104
27.3555 230.273
27.3848 299.376
27.4141 402.603
27.4434 563.639
27.4727 825.562
27.5020 1257.18
27.5360 2010.09
27.5700 2510.91
27.5870 2362.48
27.6040 2007.53
27.6380 1254.02
27.6598 913.182
27.6817 677.859
27.7254 402.660
27.7690 261.585
27.8127 182.032
27.8564 133.389
27.9001 101.704
27.9874 64.4972
28.0748 44.4166
28.1621 32.4018
28.2495 24.6593
28.3368 19.3850
28.5115 12.8717
28.6862 9.15991
28.8609 6.84817
29.0356 5.31258
29.3850 3.46494
29.7344 2.43913
30.0839 1.81178
30.4333 1.40066
31.1321 0.912828
31.8309 0.645727
32.5297 0.483908
33.2285 0.378546
34.6261 0.254215
36.0238 0.186361
38.8190 0.118342
41.6143 0.0863841
44.4095 0.0687619
50.0000 0.0512136
54.8812 0.0446270
59.7625 0.0427983
64.6437 0.0483785
65.8640 0.0542280
67.0843 0.0695833
67.6945 0.0897494
67.9995 0.109268
68.3046 0.143960
68.6097 0.215278
68.7622 0.283434
68.9148 0.402055
69.0673 0.636678
69.1436 0.851081
69.2198 1.20575
69.2961 1.85336
69.3342 2.39687
69.3724 3.21853
69.4105 4.53561
69.4486 6.80177
69.4868 11.0295
69.5249 19.3430
69.5575 30.9174
69.5900 38.6291
69.6226 30.9031
69.6551 19.3252
69.6873 11.9725
69.7194 7.82882
69.7516 5.42734
69.7837 3.95477
69.8159 2.99971
69.8480 2.35043
69.9123 1.55466
69.9767 1.10703
70.0410 0.831662
70.1696 0.525622
70.2982 0.368840
70.4268 0.278165
70.6841 0.183041
70.9413 0.136986
71.1985 0.111425
71.7130 0.0859276
72.7420 0.0690564
73.7709 0.0654493
75.8288 0.0701230
77.8867 0.0850751
79.9446 0.117504
80.9736 0.148698
82.0025 0.203902
83.0315 0.318253
83.5459 0.429710
84.0604 0.629575
84.3176 0.795782
84.5749 1.04685
84.8321 1.45280
85.0894 2.17410
85.2180 2.76656
85.3466 3.64913
85.4752 5.04723
85.6038 7.45548
85.7325 12.1366
85.7968 16.3333
85.8611 23.1318
85.9254 35.1599
85.9575 44.9317
85.9897 59.2325
86.0219 81.1654
86.0540 116.623
86.0862 177.137
86.1022 222.863
86.1183 282.953
86.1350 362.108
86.1517 452.483
86.1850 565.395
86.2017 532.103
86.2184 452.328
86.2517 282.751
86.2774 193.692
86.3031 136.716
86.3289 100.089
86.3546 75.8086
86.4060 47.2483
86.4574 32.0250
86.5089 23.0581
86.5603 17.3678
86.6632 10.8523
86.7661 7.41885
86.8689 5.39572
86.9718 4.10601
87.0747 3.23454
87.2804 2.16737
87.4861 1.56467
87.6919 1.19208
87.8976 0.946346
88.3091 0.654022
88.7206 0.495252
89.5435 0.343283
90.3665 0.283924
91.1894 0.265807
92.8353 0.302253
93.6583 0.357268
94.4812 0.450523
95.3042 0.610658
96.1271 0.907083
96.5386 1.15739
96.9501 1.53899
97.3615 2.16200
97.7730 3.28221
97.9787 4.21262
98.1845 5.61349
98.3902 7.86506
98.5960 11.8256
98.6988 15.0436
98.8017 19.7848
98.9046 27.1821
99.0074 39.6454
99.0589 49.3443
99.1103 63.0471
99.1617 83.2679
99.2132 114.765
99.2646 167.417
99.2903 207.817
99.3160 263.809
99.3418 343.820
99.3675 461.600
99.3932 639.482
99.4189 908.070
99.4550 1452.80
99.4910 1815.92
99.5271 1452.46
99.5631 907.556
99.5904 625.578
99.6177 443.774
99.6450 326.104
99.6723 247.682
99.7269 154.944
99.7816 105.236
99.8362 75.8552
99.8908 57.1656
100.000 35.7183
100.094 25.6004
100.188 19.2430
100.377 12.0196
100.565 8.23703
100.754 6.02132
100.942 4.61940
101.130 3.68586
101.507 2.59961
101.884 2.12769
102.261 2.23775
102.449 2.76017
102.543 3.32086
102.637 4.31624
102.732 6.24341
102.779 7.93084
102.826 10.5767
102.873 15.0199
102.920 23.1883
102.944 30.0034
102.967 40.0200
102.991 55.1719
103.014 78.1262
103.047 125.030
103.080 156.502
103.113 124.963
103.146 78.0225
103.169 55.6893
103.191 40.7283
103.214 30.7053
103.237 23.8592
103.282 15.4927
103.327 10.8675
103.373 8.07445
103.418 6.26792
103.509 4.15638
103.599 3.01601
103.690 2.32873
103.871 1.57017
104.052 1.17544
104.233 0.939022
104.596 0.672303
104.958 0.525685
105.321 0.432245
106.046 0.318537
107.495 0.206845
108.945 0.152955
110.395 0.123953
111.845 0.112053
112.569 0.115890
113.294 0.140334
113.657 0.178007
113.838 0.215277
114.019 0.280986
114.200 0.411587
114.291 0.530786
114.382 0.727132
114.472 1.08268
114.518 1.37820
114.563 1.82065
114.608 2.51977
114.653 3.69869
114.699 5.83300
114.744 9.86135
114.786 15.7672
114.827 19.6402
114.868 15.6965
114.909 9.86756
114.954 5.83815
115.000 3.70246
115.045 2.52229
115.090 1.82208
115.136 1.37869
115.181 1.08233
115.271 0.725593
115.362 0.527835
115.453 0.407387
115.634 0.274586
115.815 0.206762
115.996 0.167475
116.358 0.125808
117.083 0.0931627
117.807 0.0803862
120.706 0.0668284
123.604 0.0681642
126.503 0.0785696
129.401 0.104953
130.850 0.131697
132.299 0.180151
133.749 0.282283
134.473 0.382832
135.198 0.564417
135.560 0.716261
135.922 0.946730
136.285 1.32165
136.647 1.99359
136.828 2.55041
137.009 3.38638
137.190 4.72668
137.372 7.07281
137.553 11.7576
137.643 16.0795
137.734 23.2915
137.824 36.6728
137.870 48.0798
137.915 65.5587
137.960 94.2476
137.983 115.893
138.006 145.248
138.028 186.442
138.051 245.176
138.073 330.793
138.096 455.209
138.131 729.779
138.166 913.477
138.184 859.374
138.201 729.719
138.236 455.077
138.276 261.935
138.316 162.571
138.356 108.691
138.396 77.1340
138.436 57.2919
138.476 44.1569
138.555 28.4414
138.635 19.7952
138.715 14.5658
138.875 8.83364
139.035 5.93804
139.194 4.28050
139.354 3.24876
139.514 2.56906
139.833 1.78386
140.152 1.45910
140.312 1.47676
140.472 1.76644
140.552 2.16933
140.631 3.03504
140.671 3.84597
140.711 5.17323
140.751 7.45720
140.791 11.4754
140.833 17.9700
140.874 22.2993
140.915 17.9890
140.956 11.5137
141.001 7.01618
141.047 4.62450
141.092 3.29688
141.137 2.50392
141.228 1.65446
141.318 1.23260
141.500 0.834742
141.681 0.649355
142.043 0.470341
142.406 0.379364
143.130 0.282979
143.855 0.232247
145.304 0.183709
146.754 0.166672
149.653 0.176392
152.552 0.233752
154.001 0.289190
155.450 0.377125
156.900 0.524408
158.349 0.794994
159.074 1.02354
159.799 1.37273
160.524 1.94493
161.248 2.97976
161.611 3.84426
161.973 5.15267
162.335 7.27170
162.698 11.0376
162.879 14.1302
163.060 18.7336
163.241 26.0159
163.332 31.3599
163.422 38.5221
163.513 48.4505
163.604 62.7462
163.694 84.3686
163.785 119.232
163.875 180.479
163.921 229.872
163.966 301.676
164.011 410.741
164.057 584.886
164.102 877.015
164.147 1375.65
164.196 2203.61
164.245 2756.84
164.294 2203.56
164.343 1375.30
164.378 968.120
164.413 699.312
164.448 521.097
164.482 399.984
164.552 253.758
164.622 173.974
164.691 126.149
164.761 95.4920
164.900 59.9754
165.040 41.0625
165.179 29.8404
165.318 22.6504
165.457 17.7755
165.736 11.7748
166.015 8.36746
166.293 6.24994
166.572 4.84563
167.129 3.15682
167.686 2.21962
168.243 1.64617
168.800 1.27018
169.915 0.823492
171.029 0.578540
172.143 0.429984
173.257 0.333239
175.486 0.219241
177.714 0.157441
179.943 0.120479
182.172 0.0968854
186.629 0.0704842
191.086 0.0584799
195.543 0.0550881
200.000 0.0643401
200.893 0.0725659
201.787 0.0933818
202.233 0.119964
202.457 0.145171
202.680 0.189038
202.903 0.276326
203.015 0.356918
203.126 0.491753
203.238 0.743085
203.294 0.958292
203.350 1.29079
203.406 1.84130
203.461 2.83074
203.517 4.80703
203.545 6.53717
203.573 9.09311
203.615 14.5482
203.656 18.1719
203.697 14.5655
203.738 9.16332
203.776 5.86071
203.814 3.92934
203.853 2.77798
203.891 2.05710
203.967 1.25653
204.044 0.852747
204.120 0.622802
204.196 0.480412
204.349 0.321433
204.502 0.239770
204.655 0.192751
204.960 0.144241
205.571 0.111392
206.182 0.106575
206.793 0.117726
207.404 0.159057
207.710 0.214848
207.862 0.267758
208.015 0.358578
208.168 0.534351
208.244 0.691135
208.321 0.943364
208.397 1.38659
208.473 2.26278
208.512 3.05053
208.550 4.30727
208.588 6.41344
208.626 10.0043
208.668 16.0090
208.709 20.0505
208.751 16.0434
208.792 10.0329
208.824 6.90408
208.856 4.90143
208.887 3.61290
208.919 2.75775
208.983 1.75133
209.046 1.21490
209.110 0.898199
209.174 0.697163
209.301 0.467215
209.428 0.346117
209.555 0.275034
209.809 0.199680
210.063 0.163204
210.318 0.143334
210.826 0.124810
211.843 0.117232
212.860 0.122704
214.894 0.152015
216.929 0.209909
218.963 0.330015
219.980 0.445437
220.997 0.649972
221.505 0.818946
222.014 1.07349
222.522 1.48522
223.031 2.22087
223.285 2.83041
223.540 3.74772
223.794 5.22330
224.048 7.82450
224.175 9.94665
224.302 13.0823
224.429 17.9989
224.557 26.3442
224.620 32.8921
224.684 42.2138
224.747 56.1019
224.811 77.9873
224.874 115.314
224.906 144.497
224.938 185.520
224.970 245.591
225.002 336.608
225.033 479.025
225.065 702.181
225.106 1120.91
225.146 1399.54
225.187 1121.75
225.227 702.756
225.259 478.209
225.291 336.035
225.323 244.945
225.354 185.052
225.418 114.887
225.482 77.7268
225.545 55.8795
225.609 42.0665
225.736 26.2730
225.864 17.9696
225.991 13.0856
226.118 9.97717
226.246 7.88028
226.500 5.32005
226.755 3.88405
227.009 3.00545
227.264 2.43555
227.773 1.78661
228.283 1.47950
229.301 1.36831
229.810 1.50305
230.320 1.79656
230.829 2.34607
231.338 3.39518
231.593 4.28593
231.847 5.63835
232.102 7.82389
232.357 11.6804
232.484 14.8200
232.611 19.4438
232.739 26.6561
232.802 31.8818
232.866 38.7976
232.930 48.2436
232.993 61.5561
233.057 81.1983
233.120 111.686
233.184 162.561
233.216 201.417
233.248 255.120
233.280 331.813
233.311 443.905
233.343 612.082
233.375 864.341
233.421 1384.86
233.466 1728.20
233.511 1382.19
233.556 866.897
233.597 556.948
233.638 373.791
233.679 263.656
233.720 194.388
233.803 116.748
233.885 77.3492
233.967 54.8203
234.049 40.8351
234.213 25.1250
234.378 16.9969
234.542 12.2620
234.706 9.26635
234.870 7.25243
235.199 4.79737
235.528 3.41454
235.856 2.55919
236.185 1.99319
236.842 1.31350
237.499 0.935674
238.156 0.703633
238.814 0.550663
240.128 0.367220
241.442 0.265157
242.757 0.202335
244.071 0.160859
246.700 0.111228
249.328 0.0840701
254.586 0.0588234
259.843 0.0535397
262.472 0.0579641
265.101 0.0708079
267.729 0.102964
269.044 0.136562
270.358 0.198879
271.015 0.251791
271.672 0.332902
272.330 0.466230
272.987 0.708104
273.315 0.910715
273.644 1.21820
273.972 1.71761
274.301 2.60929
274.465 3.34453
274.630 4.44344
274.794 6.19152
274.958 9.21980
275.123 15.1567
275.205 20.5313
275.287 29.3110
275.328 35.9531
275.369 45.0864
275.410 58.0912
275.451 77.3505
275.492 107.518
275.513 129.164
275.533 157.474
275.554 195.323
275.574 246.153
275.595 315.231
275.615 408.323
275.655 653.757
275.694 816.807
275.714 768.316
275.733 652.909
275.772 408.138
275.815 242.304
275.857 153.627
275.899 104.167
275.941 74.6323
275.983 55.8463
276.026 43.2495
276.110 28.0305
276.195 19.5780
276.279 14.4324
276.448 8.75901
276.617 5.87123
276.785 4.20830
276.954 3.16369
277.123 2.46593
277.461 1.62041
277.799 1.14748
278.136 0.856621
278.474 0.665147
279.149 0.436863
279.825 0.311379
280.500 0.235409
281.175 0.186370
282.526 0.131263
283.877 0.111236
284.552 0.117415
284.890 0.129653
285.228 0.155628
285.565 0.213836
285.734 0.271116
285.903 0.371515
286.072 0.569722
286.156 0.749164
286.241 1.04234
286.325 1.56686
286.367 1.99748
286.410 2.63433
286.452 3.62405
286.494 5.25448
286.536 8.10975
286.578 13.2695
286.620 21.2112
286.661 26.4904
286.703 21.1931
286.744 13.2721
286.770 9.73460
286.796 7.28298
286.848 4.38592
286.900 2.88430
286.952 2.03097
287.004 1.50649
287.056 1.16336
287.160 0.758622
287.264 0.538851
287.368 0.406844
287.576 0.262806
287.784 0.189873
287.992 0.147745
288.408 0.102976
288.824 0.0804591
289.240 0.0672188
290.072 0.0524532
291.737 0.0390924
293.401 0.0325568
296.730 0.0258988
300.058 0.0228117
303.387 0.0217693
306.715 0.0231457
308.380 0.0259942
310.044 0.0341840
310.876 0.0452453
311.292 0.0560443
311.708 0.0753338
312.124 0.115214
312.333 0.153517
312.541 0.220464
312.749 0.353837
312.853 0.476515
312.957 0.680931
313.061 1.05825
313.113 1.37843
313.165 1.86807
313.217 2.66509
313.269 4.06821
313.321 6.77626
313.347 9.06836
313.373 12.3606
313.414 19.7761
313.455 24.7053
313.497 19.7596
313.538 12.3639
313.574 8.07921
313.610 5.50279
313.646 3.92250
313.682 2.91660
313.754 1.77616
313.826 1.19045
313.898 0.852879
313.970 0.642260
314.115 0.404490
314.259 0.280878
314.403 0.208764
314.691 0.132385
314.979 0.0950044
315.268 0.0740691
315.844 0.0528694
316.420 0.0431340
316.997 0.0381208
318.150 0.0340807
320.456 0.0351165
322.762 0.0430844
325.068 0.0620341
326.221 0.0809168
327.373 0.114937
327.950 0.143302
328.526 0.186265
329.103 0.256052
329.679 0.381050
329.968 0.484710
330.256 0.640597
330.544 0.891004
330.832 1.33142
330.976 1.68960
331.121 2.21721
331.265 3.04085
331.409 4.42981
331.553 7.04158
331.625 9.30350
331.697 12.8283
331.769 18.7414
331.841 29.5912
331.877 38.6542
331.913 52.0127
331.949 72.2604
331.985 102.984
332.035 164.839
332.085 205.959
332.135 164.662
332.185 102.938
332.221 72.0150
332.257 51.7555
332.294 38.4174
332.330 29.4040
332.402 18.5974
332.475 12.7250
332.547 9.22322
332.619 6.98110
332.764 4.39270
332.909 3.01818
333.054 2.20448
333.343 1.33252
333.633 0.902160
333.923 0.661307
334.212 0.515787
334.502 0.424731
335.081 0.340417
335.371 0.338769
335.660 0.374640
335.950 0.485704
336.095 0.603942
336.240 0.817338
336.384 1.24670
336.457 1.64044
336.529 2.29037
336.602 3.46905
336.638 4.44968
336.674 5.91885
336.710 8.24230
336.746 12.1647
336.783 19.2768
336.819 32.7284
336.852 52.3051
336.885 65.2947
336.917 52.2353
336.950 32.7183
336.988 18.9231
337.025 11.7884
337.063 7.91672
337.100 5.65278
337.138 4.22705
337.175 3.28227
337.250 2.14896
337.325 1.52500
337.400 1.14622
337.550 0.729504
337.699 0.517170
337.849 0.394128
338.149 0.263566
338.448 0.198568
338.748 0.161118
339.347 0.121224
340.546 0.0902354
341.744 0.0802808
344.141 0.0829247
346.538 0.107481
347.737 0.131716
348.935 0.170396
350.134 0.235409
351.332 0.355114
351.932 0.456317
352.531 0.611005
353.130 0.864617
353.729 1.32323
354.029 1.70640
354.329 2.28614
354.628 3.22432
354.928 4.89061
355.078 6.25728
355.227 8.28932
355.377 11.4988
355.452 13.8505
355.527 17.0019
355.602 21.3586
355.677 27.6175
355.752 37.0551
355.827 52.2063
355.864 63.4675
355.901 78.6534
355.939 99.8765
355.976 130.451
356.014 176.626
356.051 249.316
356.089 369.695
356.126 571.235
356.168 914.479
356.210 1142.59
356.252 913.493
356.294 571.095
356.326 392.250
356.358 277.737
356.390 203.811
356.422 154.623
356.486 96.5845
356.550 65.5337
356.614 47.1824
356.678 35.5366
356.806 22.1793
356.934 15.1231
357.062 10.9633
357.190 8.30651
357.318 6.51066
357.574 4.30725
357.831 3.05956
358.087 2.28561
358.343 1.77284
358.855 1.15722
359.367 0.815926
359.879 0.607306
360.391 0.470613
361.416 0.308358
362.440 0.219565
363.465 0.165907
364.489 0.131177
366.538 0.0909413
368.586 0.0702374
370.635 0.0593551
372.684 0.0545249
376.781 0.0595258
378.830 0.0719811
380.879 0.0983653
381.903 0.121784
382.928 0.158348
383.952 0.219230
384.976 0.330797
385.489 0.424864
386.001 0.568330
386.513 0.802719
387.025 1.22435
387.281 1.57461
387.537 2.10180
387.793 2.94831
388.049 4.43458
388.178 5.63998
388.306 7.41027
388.434 10.1649
388.562 14.7783
388.690 23.3768
388.754 30.7351
388.818 42.0922
388.882 60.8200
388.946 94.4263
389.010 161.222
389.042 219.401
389.074 304.958
389.122 488.027
389.170 610.106
389.217 488.046
389.265 305.001
389.306 200.715
389.347 137.370
389.388 98.2878
389.429 73.1758
389.511 44.5421
389.593 29.7523
389.675 21.1996
389.756 15.8493
389.920 9.79526
390.084 6.64159
390.248 4.79651
390.411 3.62579
390.575 2.83714
390.902 1.87399
391.230 1.33077
391.557 0.994666
391.884 0.772429
392.539 0.505912
393.194 0.358338
393.849 0.268141
394.503 0.209032
395.813 0.138844
397.122 0.100429
398.432 0.0772901
399.741 0.0624977
402.360 0.0466167
404.979 0.0435972
406.289 0.0499451
406.944 0.0582031
407.598 0.0745049
408.253 0.110524
408.581 0.146512
408.908 0.211477
409.072 0.265479
409.235 0.346694
409.399 0.476862
409.563 0.704641
409.726 1.15804
409.808 1.57518
409.890 2.26852
409.972 3.54736
410.013 4.62889
410.054 6.27867
410.095 8.95454
410.136 13.6407
410.177 22.6132
410.197 30.1712
410.217 40.9054
410.251 65.4524
410.284 81.7406
410.317 65.3683
410.350 40.8989
410.374 28.4250
410.399 20.3011
410.423 14.9971
410.448 11.4489
410.497 7.20435
410.545 4.91770
410.594 3.55704
410.643 2.69018
410.741 1.69158
410.839 1.16175
410.937 0.848378
411.133 0.512409
411.328 0.345627
411.524 0.251039
411.720 0.192248
411.916 0.153220
412.307 0.106217
412.698 0.0800495
413.481 0.0533918
414.264 0.0407706
415.047 0.0338869
416.613 0.0275394
418.179 0.0264797
419.745 0.0319568
420.528 0.0416634
420.919 0.0516485
421.311 0.0698985
421.702 0.108299
421.898 0.145589
422.094 0.211436
422.289 0.344448
422.387 0.468623
422.485 0.678509
422.583 1.07551
422.632 1.42041
422.681 1.96124
422.730 2.87591
422.779 4.57204
422.803 6.00362
422.828 8.13261
422.852 11.4172
422.876 16.4578
422.909 26.3470
422.942 32.9162
422.975 26.3129
423.007 16.4553
423.038 10.5169
423.068 7.04305
423.098 4.95729
423.128 3.65185
423.188 2.19452
423.248 1.45636
423.308 1.03560
423.368 0.774423
423.488 0.481600
423.608 0.330275
423.729 0.242198
423.969 0.149137
424.209 0.103582
424.450 0.0779901
424.930 0.0518060
425.411 0.0394361
