Cd-114(n,g) ENDF/B-VII.1
Energy(eV) XS(b)
1.00000E-05 15.3578
1.25000E-05 13.7364
1.50000E-05 12.5396
2.00000E-05 10.8596
2.75000E-05 9.26108
3.50000E-05 8.20907
4.25000E-05 7.44961
5.00000E-05 6.86820
6.25000E-05 6.14311
7.50000E-05 5.60786
0.000100000 4.85655
0.000125000 4.34383
0.000150000 3.96536
0.000200000 3.43410
0.000275000 2.92861
0.000350000 2.59594
0.000425000 2.35578
0.000500000 2.17192
0.000625000 1.94263
0.000750000 1.77337
0.00100000 1.53578
0.00125000 1.37365
0.00150000 1.25396
0.00200000 1.08597
0.00275000 0.926117
0.00350000 0.820917
0.00425000 0.744973
0.00500000 0.686833
0.00625000 0.614325
0.00750000 0.560802
0.0100000 0.485673
0.0125000 0.434403
0.0150000 0.396558
0.0200000 0.343435
0.0253000 0.305357
0.0314750 0.273776
0.0376500 0.250326
0.0500000 0.217231
0.0625000 0.194307
0.0750000 0.177385
0.100000 0.153634
0.125000 0.137427
0.150000 0.125465
0.200000 0.108676
0.275000 0.0927046
0.350000 0.0821967
0.500000 0.0688090
0.750000 0.0562349
1.00000 0.0487468
1.50000 0.0398778
2.00000 0.0346023
2.75000 0.0295969
3.50000 0.0263150
5.00000 0.0221565
7.50000 0.0182954
10.0000 0.0160382
15.0000 0.0134576
20.0000 0.0120302
27.5000 0.0108662
35.0000 0.0103618
42.5000 0.0103880
50.0000 0.0117489
51.5972 0.0129885
53.1944 0.0163760
53.9930 0.0209998
54.3923 0.0255866
54.7916 0.0339249
55.1909 0.0516085
55.3906 0.0690453
55.5902 0.100435
55.6900 0.126533
55.7899 0.165848
55.8897 0.229075
55.9895 0.340306
56.0893 0.563758
56.1392 0.771214
56.1892 1.12025
56.2391 1.77418
56.2640 2.33764
56.2890 3.21252
56.3139 4.66887
56.3389 7.31658
56.3514 9.49964
56.3639 12.6937
56.3763 17.4769
56.3888 24.6297
56.4067 39.4257
56.4246 49.2934
56.4425 39.4205
56.4604 24.6315
56.4817 13.9171
56.5029 8.52005
56.5242 5.64666
56.5454 3.98457
56.5667 2.95062
56.5880 2.26842
56.6305 1.45727
56.6730 1.01405
56.7155 0.746556
56.8006 0.454354
56.8856 0.306933
56.9706 0.222417
57.0557 0.169536
57.1407 0.134278
57.3108 0.0916579
57.4809 0.0678674
57.8210 0.0436413
58.1612 0.0321869
58.5013 0.0258896
59.1816 0.0195827
60.5422 0.0151158
61.9029 0.0136581
67.3453 0.0130249
78.2302 0.0161532
89.1151 0.0242961
94.5576 0.0328708
100.000 0.0492526
102.509 0.0623319
105.019 0.0823765
107.528 0.115412
110.038 0.175773
111.292 0.226783
112.547 0.304965
113.802 0.433811
115.056 0.669090
115.684 0.867702
116.311 1.17158
116.938 1.67119
117.566 2.57941
117.879 3.34254
117.958 3.58687
118.036 3.85876
118.115 4.16291
118.193 4.50465
118.272 4.89094
118.350 5.32874
118.389 5.57009
118.428 5.82826
118.507 6.40169
118.585 7.06437
118.664 7.83583
118.742 8.74124
118.820 9.81353
118.899 11.0981
118.977 12.6508
119.056 14.5542
119.134 16.9223
119.213 19.9196
119.291 23.7903
119.369 28.9091
119.448 35.8755
119.526 45.7110
119.605 60.1881
119.683 82.7756
119.761 120.829
119.801 150.433
119.840 192.258
119.879 253.945
119.918 350.002
119.957 510.403
119.997 803.676
120.016 1046.64
120.036 1403.78
120.055 1941.50
120.075 2750.56
120.103 4381.88
120.130 5462.64
120.158 4383.25
120.185 2751.17
120.205 1944.92
120.224 1407.96
120.244 1050.69
120.263 807.296
120.302 513.103
120.341 352.300
120.380 255.621
120.419 193.513
120.497 121.643
120.575 83.2881
120.653 60.5485
120.731 45.9547
120.809 36.0643
120.965 23.8873
121.120 16.9706
121.276 12.6711
121.432 9.81842
121.744 6.38843
122.056 4.48418
122.368 3.31900
122.679 2.55497
123.303 1.64680
123.926 1.14865
124.550 0.846312
125.174 0.649281
126.421 0.416675
127.668 0.289949
128.915 0.213446
130.162 0.163787
132.656 0.105441
135.150 0.0738318
137.645 0.0548404
140.139 0.0425664
145.127 0.0282326
150.116 0.0205376
155.104 0.0159646
160.093 0.0130511
170.069 0.00975501
180.046 0.00813730
200.000 0.00731167
206.716 0.00783171
213.432 0.00974148
216.790 0.0125199
218.469 0.0153251
220.148 0.0204860
221.827 0.0316033
222.666 0.0427403
223.506 0.0631408
223.925 0.0804052
224.345 0.106864
224.765 0.150444
225.185 0.229807
225.395 0.296584
225.604 0.398377
225.814 0.564719
226.024 0.864162
226.129 1.11347
226.234 1.48894
226.339 2.09306
226.444 3.15699
226.496 4.02313
226.549 5.30062
226.601 7.29624
226.654 10.6554
226.706 16.9836
226.732 22.4480
226.759 30.9679
226.785 45.2928
226.811 71.4969
226.824 93.2831
226.837 125.421
226.850 174.038
226.864 247.632
226.882 396.389
226.900 494.740
226.918 395.552
226.937 247.669
226.957 145.204
226.977 91.1516
226.997 61.3915
227.017 43.8491
227.037 32.6959
227.058 25.2848
227.098 16.3403
227.138 11.3965
227.178 8.39009
227.259 5.08332
227.340 3.40294
227.420 2.43729
227.501 1.83145
227.582 1.42668
227.743 0.936281
227.904 0.662223
228.065 0.493549
228.227 0.382543
228.549 0.250016
228.872 0.176960
229.194 0.132462
229.517 0.103366
230.162 0.0688893
230.807 0.0500196
231.452 0.0385839
232.097 0.0311355
233.387 0.0223498
234.677 0.0175703
237.256 0.0128352
242.416 0.00955395
247.576 0.00855299
268.216 0.00871892
288.856 0.0109680
309.495 0.0155680
319.815 0.0195329
330.135 0.0256329
340.455 0.0356865
350.775 0.0540043
355.935 0.0694283
361.095 0.0929803
366.255 0.131598
371.414 0.201607
373.994 0.260280
374.639 0.279024
375.284 0.299897
375.929 0.323235
376.574 0.349438
377.219 0.379005
377.542 0.395232
377.864 0.412534
378.509 0.450765
379.154 0.494622
379.799 0.545268
380.444 0.604181
381.089 0.673266
381.734 0.754993
382.379 0.852682
383.024 0.970759
384.314 1.29492
384.959 1.52188
385.604 1.81440
386.249 2.20039
386.894 2.72418
387.539 3.46018
388.184 4.53994
388.829 6.21484
389.474 9.01354
389.797 11.1735
390.119 14.2023
390.442 18.6261
390.764 25.4246
391.087 36.5685
391.409 56.3918
391.570 72.3778
391.732 95.2705
391.893 128.685
392.054 177.297
392.302 283.710
392.550 354.690
392.798 283.647
393.046 177.164
393.255 117.279
393.464 80.5608
393.673 57.7893
393.882 43.1012
394.299 26.3052
394.717 17.5867
395.135 12.5400
395.553 9.37458
396.388 5.79115
397.224 3.92277
398.060 2.82929
398.895 2.13544
399.731 1.66814
401.402 1.09761
403.073 0.776123
404.744 0.577402
406.415 0.446127
409.758 0.289021
413.100 0.202246
416.442 0.149362
419.785 0.114794
426.469 0.0738877
433.154 0.0515662
439.838 0.0380906
446.523 0.0293536
459.892 0.0191287
473.262 0.0136475
486.631 0.0104202
500.000 0.00841138
516.998 0.00688175
533.996 0.00611049
550.993 0.00620503
555.243 0.00665098
559.492 0.00798533
561.617 0.00984976
563.742 0.0151244
564.804 0.0224336
565.335 0.0297249
565.867 0.0430258
566.398 0.0713665
566.663 0.0994387
566.929 0.150232
567.062 0.192677
567.195 0.256958
567.327 0.361068
567.460 0.546192
567.527 0.698198
567.593 0.924445
567.659 1.28229
567.726 1.89705
567.792 3.08647
567.825 4.14719
567.859 5.85568
567.892 8.85217
567.925 14.7651
567.942 20.0694
567.958 28.5101
567.975 42.6011
567.991 66.3810
568.009 106.371
568.028 132.856
568.046 106.139
568.064 66.3851
568.076 47.1627
568.089 34.2960
568.102 25.6889
568.114 19.8367
568.139 12.6806
568.164 8.73386
568.190 6.34934
568.215 4.81911
568.265 3.03972
568.315 2.08652
568.365 1.52062
568.416 1.15662
568.466 0.909815
568.566 0.605433
568.667 0.432299
568.767 0.324564
568.868 0.253076
569.069 0.166934
569.270 0.119054
569.672 0.0704832
570.074 0.0475781
570.476 0.0349981
571.279 0.0223698
572.887 0.0132728
574.495 0.0100942
577.710 0.00789207
580.926 0.00721993
593.788 0.00732247
606.650 0.00883788
619.511 0.0119803
625.942 0.0147037
632.373 0.0189022
638.804 0.0258314
645.235 0.0384747
648.451 0.0491375
651.666 0.0654479
654.882 0.0922603
658.097 0.141051
659.705 0.182099
661.313 0.244705
662.920 0.347156
664.528 0.532175
664.930 0.601972
665.332 0.686557
665.734 0.790479
665.935 0.851576
666.136 0.920044
666.337 0.997197
666.538 1.08453
666.739 1.18390
666.940 1.29757
667.141 1.42857
667.342 1.58043
667.543 1.75802
667.744 1.96726
668.146 2.51610
668.548 3.33115
668.949 4.61674
669.150 5.55779
669.351 6.81681
669.552 8.55583
669.753 11.0499
669.954 14.8023
670.155 20.8039
670.356 31.2361
670.457 39.5562
670.557 51.5070
670.658 69.4166
670.758 97.4666
670.859 143.317
670.959 219.257
671.075 351.216
671.190 439.537
671.306 351.522
671.421 219.468
671.500 156.615
671.579 114.353
671.658 85.9266
671.737 66.3832
671.895 42.5126
672.052 29.3173
672.210 21.3497
672.368 16.2088
672.684 10.2241
672.999 7.01909
673.315 5.11129
673.631 3.88551
673.946 3.05265
674.578 2.02602
675.209 1.44202
675.840 1.07859
676.472 0.837238
677.734 0.546797
678.997 0.385452
680.260 0.286699
681.522 0.221932
684.047 0.145033
686.573 0.102960
689.098 0.0775597
691.623 0.0611479
696.674 0.0422137
701.724 0.0325722
706.775 0.0276214
711.825 0.0255889
721.926 0.0287753
726.977 0.0354236
732.027 0.0492372
734.553 0.0614199
737.078 0.0803920
739.603 0.111932
742.128 0.169694
743.391 0.218399
744.654 0.292711
745.916 0.414239
747.179 0.633304
747.495 0.715793
747.810 0.815679
748.126 0.938216
748.284 1.01016
748.442 1.09075
748.600 1.18150
748.757 1.28405
748.915 1.40061
749.073 1.53385
749.231 1.68722
749.389 1.86473
749.546 2.07187
749.704 2.31558
750.020 2.95256
750.336 3.89308
750.651 5.36574
750.809 6.43522
750.967 7.85734
751.125 9.80588
751.283 12.5691
751.440 16.6676
751.598 23.0992
751.756 33.9682
751.835 42.3885
751.914 54.1734
751.993 71.2085
752.072 96.6784
752.151 135.864
752.229 196.320
752.335 313.934
752.440 391.530
752.545 312.490
752.651 195.172
752.753 121.658
752.855 79.8441
752.958 55.4396
753.060 40.3883
753.163 30.5901
753.265 23.9064
753.470 15.6900
753.675 11.0528
753.879 8.19354
754.289 5.00841
754.699 3.37150
755.108 2.42235
755.518 1.82386
755.927 1.42265
756.746 0.934895
757.566 0.661180
758.385 0.492413
759.204 0.381084
760.842 0.247985
762.480 0.174488
764.119 0.129663
765.757 0.100321
769.033 0.0654921
772.310 0.0463777
775.587 0.0347531
778.863 0.0271495
785.416 0.0181114
791.969 0.0131259
798.522 0.0100719
805.075 0.00805740
818.182 0.00563342
831.288 0.00427602
857.500 0.00288604
883.712 0.00225533
909.925 0.00201780
923.031 0.00206986
936.137 0.00244225
942.690 0.00303265
949.243 0.00475982
952.520 0.00718490
955.796 0.0140924
957.435 0.0237126
958.254 0.0333391
959.073 0.0509582
959.892 0.0886743
960.302 0.126218
960.711 0.194504
960.916 0.251894
961.121 0.339281
961.326 0.481879
961.530 0.738055
961.633 0.950795
961.735 1.27088
961.838 1.78466
961.940 2.68639
961.991 3.41713
962.042 4.49088
962.094 6.15974
962.145 8.95570
962.196 14.1590
962.222 18.6120
962.247 25.4812
962.273 36.7996
962.298 57.0850
962.324 97.3207
962.337 132.286
962.349 183.111
962.369 293.250
962.388 366.156
962.407 292.647
962.426 183.118
962.445 115.025
962.463 76.0700
962.482 53.0065
962.500 38.7733
962.518 29.4141
962.537 23.0439
962.573 15.1611
962.610 10.6977
962.647 7.93951
962.720 4.86004
962.793 3.27480
962.867 2.35439
962.940 1.77349
963.014 1.38413
963.160 0.909818
963.307 0.643422
963.454 0.479086
963.601 0.370700
963.894 0.240977
964.188 0.169345
964.775 0.0970462
965.362 0.0631271
965.949 0.0445462
967.123 0.0259344
969.472 0.0125305
971.820 0.00781367
976.517 0.00444553
981.213 0.00328443
990.607 0.00251642
1000.00 0.00234275
1012.51 0.00243014
1025.02 0.00276859
1037.52 0.00343616
1050.03 0.00473203
1056.28 0.00584854
1062.54 0.00757287
1068.79 0.0104310
1075.04 0.0156737
1078.17 0.0201143
1081.30 0.0269286
1084.42 0.0381682
1087.55 0.0586902
1089.11 0.0760182
1090.68 0.102500
1092.24 0.146007
1093.80 0.224881
1094.59 0.291015
1095.37 0.391465
1096.15 0.554827
1096.54 0.677916
1096.93 0.846581
1097.13 0.956194
1097.32 1.08783
1097.52 1.24955
1097.71 1.44907
1097.91 1.70189
1098.10 2.02517
1098.30 2.44993
1098.49 3.02339
1098.69 3.82851
1098.89 4.99453
1099.08 6.79357
1099.28 9.73896
1099.37 11.9891
1099.47 15.1026
1099.57 19.5716
1099.67 26.1956
1099.77 36.7816
1099.86 54.4706
1099.96 86.9134
1100.01 112.885
1100.06 147.726
1100.15 237.258
1100.23 296.317
1100.32 236.393
1100.41 147.880
1100.47 108.149
1100.52 80.9884
1100.63 48.5419
1100.74 31.7234
1100.86 22.1666
1100.97 16.2941
1101.08 12.4533
1101.30 7.94069
1101.52 5.48167
1101.74 4.00649
1102.19 2.40653
1102.63 1.60130
1103.07 1.14221
1103.52 0.854961
1103.96 0.664202
1104.85 0.433776
1105.73 0.305415
1106.62 0.226680
1107.51 0.174988
1109.28 0.113357
1111.05 0.0794694
1112.83 0.0588690
1114.60 0.0454272
1118.15 0.0295207
1121.70 0.0208380
1125.24 0.0155867
1128.79 0.0121733
1135.89 0.00815807
1142.98 0.00598404
1157.17 0.00384899
1171.36 0.00290025
1185.55 0.00242998
1213.93 0.00210956
1242.30 0.00223139
1270.68 0.00280155
1284.87 0.00343120
1299.06 0.00478802
1306.16 0.00635384
1309.70 0.00780132
1313.25 0.0103387
1316.80 0.0156165
1318.57 0.0208175
1320.35 0.0302725
1322.12 0.0504869
1323.01 0.0706530
1323.89 0.107447
1324.34 0.138587
1324.78 0.186144
1325.22 0.264510
1325.67 0.406627
1325.89 0.526205
1326.11 0.708240
1326.33 1.00519
1326.55 1.53546
1326.66 1.97670
1326.78 2.63993
1326.89 3.70314
1327.00 5.54292
1327.11 9.23189
1327.16 12.6647
1327.22 18.2805
1327.27 28.8413
1327.30 37.8448
1327.33 51.0592
1327.36 73.2580
1327.38 110.576
1327.41 184.380
1327.44 327.971
1327.46 528.907
1327.48 654.945
1327.51 519.637
1327.53 327.996
1327.55 195.880
1327.58 124.575
1327.60 84.6380
1327.63 60.7227
1327.65 45.4815
1327.67 35.2474
1327.72 22.8657
1327.77 15.9860
1327.82 11.7879
1327.91 7.15581
1328.01 4.79725
1328.11 3.43736
1328.20 2.58319
1328.30 2.01207
1328.49 1.31989
1328.68 0.932493
1328.87 0.694087
1329.07 0.537040
1329.45 0.349566
1329.83 0.246209
1330.22 0.183260
1330.60 0.142198
1331.37 0.0934252
1332.14 0.0667684
1333.67 0.0401778
1335.21 0.0278729
1336.74 0.0212473
1339.81 0.0148295
1342.88 0.0120828
1345.95 0.0108187
1352.10 0.0101857
1364.38 0.0121465
1376.66 0.0175160
1382.80 0.0222758
1388.94 0.0296208
1395.08 0.0416968
1401.23 0.0635286
1404.30 0.0817365
1407.37 0.109247
1408.90 0.128611
1409.67 0.140303
1410.44 0.153661
1411.21 0.169058
1411.97 0.186882
1412.74 0.207728
1413.51 0.232251
1414.28 0.261450
1415.04 0.296544
1415.81 0.339229
1416.58 0.391782
1417.35 0.457672
1418.11 0.541570
1418.88 0.650966
1419.65 0.796857
1420.42 0.997929
1421.19 1.28525
1421.95 1.71541
1422.72 2.39812
1423.49 3.57385
1423.87 4.50222
1424.26 5.82050
1424.64 7.77395
1425.02 10.7825
1425.41 15.5920
1425.79 23.3301
1426.26 37.3304
1426.72 46.7010
1427.19 37.3919
1427.65 23.3724
1428.03 15.7094
1428.40 10.9204
1428.78 7.90307
1429.16 5.93326
1429.91 3.65364
1430.67 2.45673
1431.42 1.75881
1432.17 1.31884
1433.68 0.818600
1435.19 0.556376
1436.70 0.402477
1438.21 0.304645
1439.71 0.238712
1442.73 0.158125
1445.74 0.112799
1448.76 0.0849438
1451.77 0.0667958
1457.80 0.0463464
1463.84 0.0393656
1466.85 0.0425636
1468.36 0.0481436
1469.87 0.0599286
1471.37 0.0870359
1472.13 0.114770
1472.88 0.165802
1473.26 0.209067
1473.64 0.275329
1474.01 0.384189
1474.39 0.581645
1474.58 0.747531
1474.77 0.997895
1474.96 1.40669
1475.14 2.13234
1475.24 2.73726
1475.33 3.63241
1475.43 5.05393
1475.52 7.51029
1475.61 12.3068
1475.66 16.6272
1475.71 23.6611
1475.76 36.1983
1475.78 46.7226
1475.80 61.5967
1475.83 85.6764
1475.85 123.531
1475.87 192.535
1475.90 316.261
1475.92 507.228
1475.94 632.352
1475.97 507.294
1475.99 316.316
1476.01 208.682
1476.03 144.792
1476.05 103.021
1476.07 77.4429
1476.11 47.2632
1476.14 31.9046
1476.18 22.7262
1476.22 16.9806
1476.30 10.5466
1476.38 7.14200
1476.45 5.17386
1476.53 3.90733
1476.61 3.06475
1476.76 2.02732
1476.92 1.44206
1477.07 1.07993
1477.23 0.840463
1477.54 0.553521
1477.85 0.394803
1478.16 0.297999
1478.47 0.234737
1479.09 0.160144
1479.71 0.120073
1480.95 0.0833491
1482.19 0.0750796
1483.43 0.0969862
1484.05 0.138703
1484.36 0.182253
1484.67 0.262634
1484.98 0.433657
1485.13 0.601563
1485.29 0.901442
1485.37 1.15047
1485.44 1.51748
1485.52 2.10816
1485.60 3.11535
1485.68 5.10851
1485.72 6.91059
1485.75 9.75827
1485.79 14.9480
1485.81 19.3358
1485.83 25.4932
1485.85 35.5699
1485.87 51.2961
1485.89 78.3314
1485.91 127.076
1485.93 204.652
1485.95 253.867
1485.97 204.629
1485.99 127.059
1486.00 88.4058
1486.02 62.2151
1486.03 45.4257
1486.05 34.9389
1486.07 21.9454
1486.10 14.9475
1486.13 10.7983
1486.16 8.15191
1486.22 5.10753
1486.28 3.47486
1486.34 2.52968
1486.39 1.92484
1486.45 1.51481
1486.57 1.00763
1486.69 0.722741
1486.92 0.426977
1487.15 0.285146
1487.38 0.206266
1487.85 0.125949
1488.32 0.0877285
1488.78 0.0664364
1489.71 0.0444954
1491.58 0.0274599
1493.44 0.0205764
1497.17 0.0144674
1500.89 0.0115258
1508.35 0.00843513
1515.80 0.00672042
1530.71 0.00479822
1545.61 0.00378081
1560.52 0.00328228
1575.43 0.00339948
1582.88 0.00404477
1590.33 0.00623299
1594.06 0.00941989
1597.79 0.0185873
1599.65 0.0313980
1600.58 0.0442296
1601.51 0.0676937
1602.45 0.117976
1602.91 0.168045
1603.38 0.258907
1603.61 0.335386
1603.84 0.451856
1604.08 0.641946
1604.31 0.983764
1604.43 1.26909
1604.54 1.69484
1604.66 2.38471
1604.77 3.58580
1604.83 4.57790
1604.89 6.01447
1604.95 8.24595
1605.01 11.9816
1605.07 18.9257
1605.09 24.8617
1605.12 34.0089
1605.15 49.0596
1605.18 75.9850
1605.21 129.274
1605.23 177.462
1605.24 245.073
1605.26 391.174
1605.28 490.426
1605.31 391.171
1605.33 245.074
1605.34 169.860
1605.36 121.756
1605.38 90.2014
1605.39 68.9339
1605.42 42.9384
1605.46 29.3874
1605.49 21.0996
1605.52 15.9802
1605.59 10.0498
1605.65 6.85125
1605.72 4.96457
1605.78 3.76076
1605.84 2.95699
1605.97 1.95379
1606.10 1.38964
1606.23 1.03662
1606.36 0.804427
1606.62 0.524165
1606.88 0.368665
1607.14 0.273537
1607.40 0.211140
1607.92 0.136977
1608.43 0.0962630
1609.47 0.0554048
1610.51 0.0363377
1611.54 0.0259330
1613.61 0.0155685
1617.76 0.00824580
1621.90 0.00594907
1626.04 0.00549747
1630.19 0.00709178
1632.26 0.0100447
1634.33 0.0188962
1635.37 0.0313565
1636.40 0.0665877
1636.92 0.115042
1637.18 0.162958
1637.44 0.249467
1637.70 0.430565
1637.83 0.607370
1637.96 0.917846
1638.09 1.55280
1638.15 2.15032
1638.22 3.14982
1638.28 5.08292
1638.31 6.75240
1638.34 9.38210
1638.38 14.0345
1638.41 22.6031
1638.43 29.9276
1638.44 41.0309
1638.46 58.4259
1638.47 86.5050
1638.49 139.343
1638.51 172.980
1638.53 139.345
1638.55 86.5071
1638.57 64.1839
1638.58 47.6719
1638.61 28.3237
1638.63 18.3993
1638.66 12.8030
1638.68 9.38305
1638.71 7.15548
1638.76 4.54075
1638.81 3.12979
1638.87 2.28532
1638.97 1.37001
1639.07 0.911600
1639.18 0.650046
1639.39 0.379323
1639.59 0.248140
1639.80 0.175414
1640.22 0.101240
1641.05 0.0468763
1641.88 0.0274909
1643.54 0.0134258
1645.20 0.00842717
1651.84 0.00348250
1658.48 0.00255555
1665.13 0.00234326
1678.41 0.00371371
1681.73 0.00546374
1685.06 0.0105513
1686.72 0.0176809
1688.38 0.0378944
1689.21 0.0659217
1689.62 0.0937930
1690.04 0.144485
1690.45 0.251883
1690.66 0.357928
1690.87 0.547505
1691.08 0.943368
1691.18 1.32542
1691.28 1.98789
1691.33 2.52851
1691.39 3.32283
1691.44 4.55722
1691.49 6.62483
1691.54 10.4712
1691.57 13.7614
1691.59 18.8341
1691.62 27.1851
1691.65 42.1296
1691.67 71.6864
1691.69 97.2796
1691.70 133.318
1691.72 211.849
1691.74 266.297
1691.76 211.848
1691.78 132.981
1691.79 92.6692
1691.81 67.0596
1691.82 50.0529
1691.83 38.4745
1691.86 24.4781
1691.89 16.8077
1691.92 12.2068
1691.95 9.24837
1692.00 5.81812
1692.06 3.96379
