In-115(n,tot) ENDF/B-VII.1
Energy(eV) XS(b)
1.00000E-05 9823.84
1.25000E-05 8787.01
1.50000E-05 8021.65
2.00000E-05 6947.34
2.75000E-05 5925.14
3.50000E-05 5252.42
4.25000E-05 4766.78
5.00000E-05 4394.99
6.25000E-05 3931.33
7.50000E-05 3589.08
0.000100000 3108.68
0.000125000 2780.85
0.000150000 2538.86
0.000200000 2199.21
0.000275000 1876.05
0.000350000 1663.40
0.000425000 1509.90
0.000500000 1392.39
0.000625000 1245.87
0.000750000 1137.73
0.00100000 985.978
0.00125000 882.450
0.00150000 806.055
0.00200000 698.874
0.00275000 596.978
0.00350000 529.987
0.00425000 481.677
0.00500000 444.731
0.00625000 398.717
0.00750000 364.812
0.0100000 317.343
0.0125000 285.066
0.0150000 261.329
0.0200000 228.192
0.0253000 204.630
0.0314750 185.269
0.0376500 171.043
0.0500000 151.287
0.0625000 137.932
0.0750000 128.337
0.100000 115.453
0.125000 107.281
0.150000 101.774
0.200000 95.3144
0.275000 91.8248
0.350000 92.5910
0.500000 103.031
0.625000 121.266
0.750000 152.552
0.875000 207.586
0.937500 251.289
1.00000 313.930
1.05244 389.944
1.10488 501.483
1.15731 674.590
1.20975 964.350
1.23597 1188.60
1.26219 1504.10
1.28841 1967.27
1.31463 2684.63
1.34084 3874.96
1.36706 6034.07
1.38017 7810.42
1.39328 10405.8
1.40639 14287.0
1.41950 20086.3
1.43825 31985.1
1.45700 39783.7
1.47575 31668.9
1.49450 19703.2
1.51030 13002.4
1.52609 8904.67
1.54189 6369.03
1.55769 4736.86
1.58928 2875.58
1.62088 1913.11
1.65247 1358.02
1.68406 1011.11
1.74725 620.390
1.81044 418.110
1.87363 300.551
1.93681 226.466
2.00000 176.906
2.11308 121.681
2.22616 89.3272
2.33924 68.8609
2.45233 55.1766
2.67849 38.8348
2.90465 30.3243
3.13081 26.4584
3.35698 27.7830
3.47006 32.9125
3.52660 38.3705
3.58314 48.0244
3.63968 66.6389
3.66795 82.8717
3.69622 108.216
3.72449 150.520
3.75276 227.553
3.76690 291.034
3.78103 383.842
3.79517 522.649
3.80930 730.086
3.82965 1160.09
3.85000 1446.84
3.87035 1159.91
3.89070 729.676
3.90803 485.456
3.92537 336.430
3.94270 244.360
3.96003 185.127
3.99470 117.521
4.02936 82.4394
4.06403 62.0938
4.09869 49.2855
4.16803 34.6665
4.23736 26.9162
4.30669 22.2778
4.44535 17.1478
4.58401 14.4391
4.72268 12.7795
5.00000 10.8450
5.44100 9.28786
5.88200 8.46746
6.32300 8.01771
6.54350 7.91214
6.76400 8.05743
6.85300 8.30201
6.94200 8.05951
7.20290 7.94252
7.46380 8.20628
7.72470 8.79800
7.98560 10.0261
8.24650 12.8055
8.37695 15.6032
8.50740 20.6504
8.63785 31.0486
8.70308 40.8978
8.76830 57.7644
8.83353 90.1063
8.86614 118.605
8.89875 163.857
8.93136 241.475
8.94767 302.523
8.96398 389.113
8.98028 516.409
8.99659 710.865
9.01289 1018.34
9.02920 1508.29
9.04960 2419.14
9.07000 3033.84
9.08020 2860.43
9.09040 2435.98
9.11080 1529.40
9.12469 1097.70
9.13859 805.919
9.15248 609.051
9.16638 473.348
9.19416 307.124
9.22195 214.807
9.24974 158.902
9.27753 122.693
9.33310 80.3674
9.38868 57.5787
9.44425 43.9345
9.49983 35.1232
9.55540 29.1018
9.66655 21.6241
9.77770 17.3225
9.88885 14.6160
10.0000 12.7992
10.2463 10.4135
10.4925 9.13821
10.7388 8.39771
10.9850 7.97914
11.2313 7.84218
11.4775 8.18754
11.6006 8.84026
11.6622 9.47182
11.7238 10.5216
11.7853 12.3943
11.8469 16.1039
11.8777 19.4153
11.9084 24.6382
11.9392 33.2367
11.9700 47.5984
12.0050 72.3575
12.0400 89.0270
12.0750 72.7576
12.1100 48.0682
12.1494 30.7361
12.1888 21.6582
12.2282 16.6801
12.2676 13.7373
12.3070 11.8737
12.3464 10.6255
12.4253 9.11136
12.5041 8.26015
12.5829 7.73058
12.7405 7.12286
12.8981 6.79009
13.0558 6.58141
13.3710 6.37085
13.4600 6.37088
13.5490 6.27501
13.7506 6.14675
13.9522 6.07136
14.3554 5.96012
15.1618 5.80875
16.7745 5.62593
18.3873 5.51792
19.1936 5.48681
20.0000 5.48317
20.6723 5.53416
21.0084 5.60884
21.3445 5.76744
21.5126 5.91174
21.6806 6.14150
21.8487 6.53072
22.0168 7.25212
22.1008 7.86150
22.1848 8.78670
22.2689 10.2806
22.3529 12.9052
22.4369 18.1176
22.4789 22.8715
22.5209 30.6829
22.5630 44.7558
22.5840 56.3715
22.6050 73.6119
22.6260 100.538
22.6470 145.129
22.6680 223.706
22.6785 284.728
22.6890 366.704
22.6993 469.489
22.7095 587.549
22.7300 738.032
22.7505 595.082
22.7710 376.119
22.7844 275.287
22.7977 205.832
22.8244 124.837
22.8512 83.3895
22.8779 60.0036
22.9046 45.6831
22.9313 36.3294
22.9848 25.3000
23.0382 19.3033
23.0916 15.6867
23.1985 11.7233
23.3054 9.70565
23.4123 8.53549
23.5191 7.79350
23.6260 7.29167
23.8398 6.67172
24.0535 6.31408
24.2673 6.08652
24.4810 5.93113
24.9085 5.73509
25.3360 5.61742
26.1910 5.48214
27.0460 5.40423
27.9010 5.35146
28.7560 5.31416
29.1835 5.30785
29.3973 5.32803
29.5041 5.37537
29.5576 5.43492
29.6110 5.55598
29.6555 5.72287
29.7000 5.83388
29.7445 5.72036
29.7890 5.55046
29.8272 5.45289
29.8654 5.39306
29.9418 5.33127
30.0182 5.30235
30.0946 5.28617
30.4002 5.25776
31.0115 5.23228
32.2339 5.19551
33.4564 5.16390
34.6789 5.13817
35.9013 5.13035
36.5126 5.14775
37.1238 5.20744
37.4294 5.27295
37.7350 5.38848
38.0406 5.60224
38.3462 6.03190
38.4991 6.41570
38.6519 7.02301
38.8047 8.04861
38.9575 9.94662
39.0339 11.5485
39.1103 13.9779
39.1867 17.8933
39.2631 24.7449
39.3395 38.2538
39.3777 50.4618
39.4159 70.3190
39.4541 105.511
39.4732 134.068
39.4923 175.763
39.5114 239.371
39.5305 341.379
39.5496 513.261
39.5592 641.569
39.5687 808.876
39.5894 1301.76
39.6100 1639.51
39.6307 1324.46
39.6513 837.281
39.6660 595.328
39.6807 434.207
39.6954 326.812
39.7100 253.580
39.7394 164.761
39.7688 115.890
39.7981 86.4293
39.8275 67.3995
39.8862 45.1705
39.9450 33.1867
40.0037 25.9909
40.0624 21.3275
40.1212 18.1293
40.2386 14.1421
40.3561 11.8568
40.4735 10.4947
40.5910 9.95633
40.6800 10.0727
40.7690 8.95232
40.8561 8.19916
40.9432 7.77321
41.1175 7.24290
41.4659 6.63876
41.8144 6.29053
42.1629 6.06497
42.8598 5.79387
43.5567 5.64045
44.2536 5.54832
44.9506 5.50908
45.2990 5.52876
45.4733 5.56491
45.6475 5.64259
45.8217 5.82019
45.9088 5.99754
45.9959 6.31174
46.0831 6.93708
46.1266 7.50581
46.1702 8.43541
46.2137 10.0942
46.2573 13.4387
46.2791 16.4984
46.3009 21.4574
46.3226 29.9342
46.3444 44.7674
46.3672 68.9238
46.3900 85.4960
46.4128 70.0837
46.4356 46.2190
46.4618 29.1026
46.4881 20.2283
46.5143 15.4007
46.5406 12.5645
46.5668 10.7776
46.5930 9.58683
46.6455 8.15546
46.6980 7.36386
46.7505 6.88266
46.8554 6.35671
46.9604 6.09895
47.0653 5.96579
47.2752 5.89693
47.4851 6.05186
47.5901 6.26910
47.6950 6.68967
47.8000 7.57520
47.8524 8.40951
47.9049 9.81319
47.9574 12.4143
47.9836 14.6168
48.0099 17.9646
48.0361 23.3578
48.0623 32.6774
48.0886 50.1161
48.1148 84.4647
48.1374 133.087
48.1600 166.524
48.1826 135.608
48.2052 87.6147
48.2192 66.2908
48.2333 51.3026
48.2613 33.3713
48.2893 23.9441
48.3174 18.5298
48.3454 15.1699
48.3735 12.9543
48.4296 10.3131
48.4856 8.85984
48.5417 7.97478
48.6539 6.99305
48.7661 6.48506
48.8783 6.18561
49.1026 5.85956
49.3270 5.69088
49.5513 5.58957
50.0000 5.47432
50.5419 5.39966
51.0839 5.35370
52.1678 5.29660
53.2516 5.25946
54.3355 5.23134
56.5033 5.18807
57.5871 5.17045
58.1291 5.16339
58.4000 5.16268
58.5355 5.16735
58.6033 5.17545
58.6710 5.19596
58.7600 5.23663
58.8490 5.19372
58.9130 5.17226
58.9769 5.16237
59.1048 5.15403
59.3606 5.14782
59.8723 5.14246
60.3839 5.14171
60.8956 5.14952
61.4072 5.18054
61.6630 5.21903
61.9188 5.29696
62.0467 5.36635
62.1747 5.47543
62.3026 5.65774
62.4305 5.98996
62.5584 6.67872
62.6223 7.33099
62.6863 8.44171
62.7503 10.5432
62.7822 12.3626
62.8142 15.1917
62.8462 19.8948
62.8782 28.3985
62.9101 45.4458
62.9261 60.3886
62.9421 82.4624
62.9661 130.211
62.9900 163.161
63.0140 132.895
63.0379 85.8178
63.0635 53.7850
63.0891 36.3885
63.1146 26.5854
63.1402 20.6804
63.1658 16.8955
63.1913 14.3395
63.2425 11.2223
63.2936 9.47050
63.3448 8.38995
63.4470 7.17915
63.5493 6.54897
63.6516 6.17770
63.7539 5.93939
63.8562 5.77658
64.0608 5.57304
64.2653 5.45396
64.6745 5.32445
65.0836 5.25708
65.4927 5.21645
65.9019 5.18987
66.3110 5.17587
66.4000 5.17729
66.4890 5.17003
66.6723 5.16160
66.8555 5.15750
67.2220 5.15448
67.5885 5.15983
67.9550 5.18057
68.3214 5.23773
68.5047 5.29881
68.6879 5.41070
68.8712 5.63971
68.9628 5.85194
69.0544 6.20409
69.1460 6.84379
69.1919 7.37476
69.2377 8.16633
69.2835 9.40698
69.3293 11.4700
69.3751 15.1215
69.4209 21.8045
69.4655 32.1381
69.5100 39.2807
69.5546 32.7540
69.5991 22.5732
69.6520 15.0981
69.7048 11.2908
69.7576 9.24481
69.8105 8.05142
69.8633 7.30305
69.9162 6.80555
70.0218 6.20756
70.1275 5.87562
70.2332 5.67203
70.4446 5.44417
70.6560 5.32478
70.8673 5.25344
71.2901 5.17439
71.7128 5.13379
72.1355 5.11571
72.3469 5.11854
72.5583 5.14350
72.6640 5.17900
72.7696 5.25965
72.8225 5.33997
72.8753 5.48048
72.9282 5.74629
72.9810 6.27588
73.0255 7.00762
73.0700 7.49534
73.1145 7.00547
73.1590 6.27069
73.1947 5.87251
73.2303 5.62177
73.2659 5.46249
73.3016 5.35765
73.3729 5.23479
73.4441 5.16887
73.5867 5.10354
73.7293 5.07218
74.0144 5.04096
74.2995 5.02353
75.4400 4.98105
76.5805 4.94658
77.1508 4.93281
77.4359 4.93503
77.5784 4.95377
77.6497 4.98441
77.7210 5.06326
77.8100 5.21390
77.8990 5.05850
77.9448 4.99711
77.9907 4.96279
78.0823 4.93023
78.2656 4.90777
78.6322 4.89472
78.9988 4.89555
79.3654 4.91692
79.7319 4.99294
79.9152 5.08466
80.0985 5.26793
80.2818 5.68280
80.3735 6.10305
80.4651 6.86322
80.5568 8.42388
80.6026 9.88703
80.6484 12.3530
80.6942 16.9464
80.7172 20.8580
80.7401 26.8419
80.7630 36.5570
80.7859 53.5363
80.8088 85.8319
80.8203 112.760
80.8317 150.934
80.8413 193.042
80.8509 241.546
80.8700 304.412
80.8892 247.363
80.9083 158.207
80.9267 102.090
80.9451 69.6645
80.9634 50.4980
80.9818 38.5582
81.0186 25.3133
81.0553 18.6119
81.0921 14.7784
81.1288 12.3869
81.2023 9.68171
81.2758 8.26582
81.3493 7.43369
81.4964 6.55222
81.6434 6.13823
81.7904 5.94224
82.0844 5.93068
82.2314 6.10922
82.3784 6.47577
82.5254 7.17313
82.6725 8.54991
82.7460 9.74722
82.8195 11.5931
82.8930 14.6090
82.9665 19.9511
83.0400 30.6010
83.0767 40.2968
83.1135 56.1514
83.1503 84.4152
83.1686 107.450
83.1870 141.172
83.2054 192.833
83.2238 275.983
83.2421 416.870
83.2605 660.495
83.2803 1066.65
83.3000 1348.49
83.3198 1093.83
83.3395 694.502
83.3554 474.828
83.3713 335.922
83.3871 247.458
83.4030 189.169
83.4347 120.949
83.4665 84.6244
83.4982 63.1717
83.5300 49.4948
83.5934 33.6942
83.6569 25.2409
83.7204 20.1784
83.7839 16.8951
83.8474 14.6375
83.9744 11.8021
84.1013 10.1416
84.2283 9.07656
84.3553 8.34753
84.6092 7.43212
84.8631 6.89568
85.1171 6.56555
85.2440 6.47718
85.3075 6.47768
85.3710 6.55670
85.4600 6.75829
85.5490 6.42690
85.6393 6.20754
85.7295 6.10340
85.9100 5.98596
86.0905 5.92033
86.1808 5.91809
86.2710 5.98898
86.3600 6.13124
86.4490 5.93099
86.5084 5.83219
86.5679 5.77764
86.6868 5.71665
86.9245 5.64579
87.4000 5.55145
87.8755 5.48379
88.1133 5.46091
88.2321 5.45967
88.2916 5.46883
88.3510 5.49618
88.4400 5.55852
88.5290 5.47812
88.6191 5.42618
88.7093 5.40351
88.8895 5.37875
89.2500 5.34574
89.9709 5.29482
90.6919 5.25437
91.4129 5.22422
92.1338 5.21485
92.4943 5.23093
92.8548 5.28535
93.0350 5.34387
93.2153 5.44526
93.3955 5.62920
93.5757 5.99035
93.6659 6.30654
93.7560 6.79806
93.8461 7.60960
93.9362 9.06627
94.0263 12.0207
94.0714 14.7549
94.1165 19.2978
94.1615 27.5756
94.1841 34.4692
94.2066 44.7792
94.2291 61.0051
94.2516 88.1337
94.2742 136.510
94.2854 174.503
94.2967 225.909
94.3075 289.790
94.3184 363.473
94.3400 459.426
94.3617 373.517
94.3833 238.461
94.4053 149.753
94.4272 99.9944
94.4491 71.2420
94.4711 53.6072
94.4930 42.1527
94.5150 34.3392
94.5588 24.7083
94.6027 19.2368
94.6466 15.8337
94.7344 11.9884
94.8221 9.96924
94.9099 8.77154
94.9976 7.99874
95.0854 7.46847
95.2609 6.80249
95.4364 6.41120
95.6120 6.15877
95.7875 5.98466
96.1385 5.76308
96.4896 5.62964
96.8406 5.54107
97.1917 5.47814
97.8937 5.39476
98.5958 5.34286
99.2979 5.31182
99.6490 5.30655
100.000 5.31938
100.183 5.34686
100.274 5.37455
100.366 5.42183
100.457 5.50906
100.548 5.69011
100.594 5.85957
100.640 6.14028
100.685 6.63435
100.731 7.52884
100.776 8.90004
100.820 9.81406
100.865 8.89894
100.909 7.52545
100.951 6.67670
100.994 6.18790
101.036 5.89891
101.078 5.71878
101.162 5.51881
101.247 5.41742
101.331 5.35892
101.416 5.32195
101.585 5.27877
101.753 5.25454
101.922 5.23883
102.260 5.21883
102.936 5.19567
103.273 5.18860
103.442 5.18837
103.527 5.19233
103.611 5.20722
103.700 5.23405
103.789 5.20349
103.899 5.18216
104.008 5.17480
104.227 5.16777
104.664 5.15877
105.540 5.14413
107.290 5.11961
108.165 5.10936
109.041 5.10194
109.478 5.10136
109.916 5.10868
110.135 5.12194
110.244 5.13520
110.353 5.15810
110.463 5.20127
110.518 5.23821
110.572 5.29483
110.627 5.38692
110.682 5.54834
110.736 5.85703
110.764 6.11631
110.791 6.48431
110.836 7.32934
110.880 7.89274
110.925 7.32931
110.969 6.48358
111.022 5.87180
111.074 5.56257
111.127 5.39685
111.179 5.30076
111.232 5.24060
111.284 5.20077
111.389 5.15297
111.494 5.12638
111.599 5.11001
111.810 5.09145
112.230 5.07572
112.650 5.07093
113.070 5.07547
113.280 5.08438
113.491 5.10341
113.701 5.14608
113.806 5.18754
113.911 5.25847
114.016 5.39202
114.068 5.50614
114.121 5.68089
114.174 5.96516
114.226 6.46012
114.279 7.39683
114.331 9.26985
114.376 11.9043
114.420 13.7407
114.465 12.0994
114.509 9.51303
114.557 7.74282
114.604 6.78018
114.652 6.23597
114.699 5.90715
114.747 5.69535
114.794 5.55220
114.889 5.37665
114.984 5.27705
115.079 5.21501
115.269 5.14413
115.459 5.10586
115.649 5.08222
116.030 5.05431
116.790 5.02585
117.550 5.00857
118.310 4.99542
119.071 4.98657
119.451 4.98664
119.831 4.99821
120.021 5.01798
120.116 5.03736
120.211 5.07031
120.306 5.13118
120.401 5.25837
120.449 5.37866
120.496 5.58027
120.544 5.94129
120.591 6.61195
120.636 7.60992
120.680 8.27516
120.725 7.60908
120.769 6.60954
120.809 6.01758
120.849 5.66576
120.889 5.45298
120.929 5.31814
121.009 5.16620
121.089 5.08794
121.169 5.04244
121.249 5.01349
121.409 4.97945
121.729 4.94750
122.049 4.93087
122.689 4.91042
123.329 4.89897
123.969 4.90697
124.289 4.93296
124.609 5.00122
124.769 5.07021
124.929 5.18711
125.089 5.39626
125.249 5.80324
125.329 6.15782
125.409 6.70720
125.489 7.61102
125.569 9.22595
125.649 12.4794
125.689 15.4691
125.729 20.3985
125.769 29.2778
125.789 36.5850
125.809 47.3850
125.829 64.1097
125.849 91.4434
125.869 138.626
125.879 174.567
125.889 222.101
125.899 284.522
125.910 355.449
125.930 447.784
125.951 365.991
125.971 235.364
125.984 173.959
125.998 131.562
126.024 81.3911
126.051 55.4445
126.078 40.6854
126.105 31.5854
126.131 25.6048
126.185 18.5045
126.238 14.5947
126.291 12.2170
126.398 9.57285
126.505 8.20163
126.611 7.39390
126.718 6.87375
126.825 6.51678
127.038 6.06726
127.252 5.80192
127.679 5.51029
128.105 5.35742
128.532 5.26559
129.386 5.16859
129.813 5.14808
130.240 5.14700
130.667 5.17566
131.094 5.26346
131.307 5.35247
131.520 5.50056
131.734 5.75889
131.947 6.24513
132.161 7.28117
132.268 8.27806
132.374 9.99457
132.481 13.2770
132.534 16.1441
132.588 20.6213
132.641 28.1242
132.694 41.7676
132.721 53.0117
132.748 69.4065
132.774 93.8208
132.801 129.955
132.821 166.130
132.841 207.611
132.880 261.864
132.920 214.141
132.959 138.140
133.002 85.0691
133.045 56.4077
133.088 40.3352
133.131 30.6989
133.174 24.5130
133.217 20.3454
133.304 15.2501
133.390 12.3796
133.476 10.6023
133.648 8.59969
133.820 7.54794
133.992 6.92309
134.165 6.51836
134.337 6.23929
134.681 5.88579
135.026 5.67526
135.370 5.53728
135.715 5.44041
136.403 5.31356
137.092 5.23363
138.470 5.13586
139.848 5.07518
141.226 5.03310
141.914 5.01925
142.603 5.01781
142.948 5.03167
143.120 5.04894
143.292 5.08192
143.464 5.15013
143.551 5.21297
143.637 5.31608
143.723 5.50017
143.809 5.87090
143.852 6.21024
143.895 6.75889
143.938 7.69962
143.981 9.34445
144.026 11.9753
144.070 13.7284
144.115 11.9761
144.159 9.34443
144.204 7.63893
144.249 6.69040
144.294 6.14663
144.339 5.81615
144.429 5.45804
144.520 5.28173
144.610 5.18346
144.700 5.12432
144.880 5.06414
145.060 5.04780
145.241 5.07645
145.331 5.12556
145.421 5.23529
145.466 5.34027
145.511 5.51450
145.556 5.82135
145.601 6.37394
145.646 7.23007
145.690 7.80059
145.735 7.22831
145.779 6.36994
145.808 5.98227
145.836 5.71421
145.893 5.40051
145.950 5.24028
146.007 5.15122
146.121 5.06742
146.235 5.04248
146.349 5.05689
146.463 5.12974
146.520 5.21291
146.577 5.36665
146.634 5.67263
146.663 5.93598
146.691 6.31808
146.736 7.16613
146.780 7.73064
146.825 7.16045
146.869 6.30619
146.922 5.68571
146.975 5.37132
147.027 5.20256
147.080 5.10398
147.186 4.99971
147.291 4.94826
147.502 4.89918
147.713 4.87589
148.135 4.85604
148.558 4.86184
148.769 4.88075
148.980 4.92140
149.191 5.00502
149.402 5.18361
149.507 5.34763
149.613 5.60991
149.718 6.05503
149.824 6.87628
149.929 8.59517
149.982 10.2268
150.035 12.9932
150.088 18.1947
150.114 22.6505
150.140 29.4630
150.167 40.6017
150.193 60.1512
150.220 97.5034
150.233 128.737
150.246 172.769
150.257 222.066
150.268 278.570
150.290 352.662
150.312 287.569
150.334 184.647
150.358 114.091
150.381 75.6533
150.405 53.7711
150.428 40.5829
150.451 32.0552
150.475 26.2983
150.522 19.2338
150.569 15.2266
150.615 12.7431
150.709 9.93262
150.803 8.45326
150.896 7.57249
150.990 7.00172
151.084 6.60822
151.271 6.11054
151.459 5.81504
151.646 5.62233
151.833 5.48787
152.208 5.31369
152.583 5.20580
153.333 5.07715
154.082 4.99957
154.832 4.94459
155.581 4.90389
155.956 4.89595
156.144 4.91455
156.237 4.95665
156.284 5.00617
156.331 5.09895
156.376 5.23968
156.420 5.33288
156.465 5.23579
156.509 5.09111
156.570 4.97396
156.632 4.91944
156.754 4.87452
157.000 4.84517
157.490 4.82868
157.735 4.83541
157.981 4.87235
158.103 4.92442
158.226 5.04616
158.287 5.17219
158.348 5.40304
158.410 5.87187
158.440 6.28819
158.471 6.90653
158.516 8.19882
158.560 9.05947
158.605 8.19512
158.649 6.89848
158.677 6.32435
158.705 5.92427
158.760 5.44742
158.816 5.19792
158.871 5.05456
158.982 4.90575
159.093 4.83323
159.315 4.76385
159.537 4.72891
159.981 4.68840
160.425 4.66198
160.869 4.64615
161.313 4.65349
161.535 4.68241
161.757 4.76749
161.868 4.86975
161.979 5.09032
162.035 5.30676
162.090 5.68607
162.146 6.41362
162.201 7.90229
162.246 9.88456
162.290 11.2074
162.335 9.89503
162.379 7.92215
162.414 6.86612
162.449 6.20184
162.520 5.50559
162.590 5.19219
162.660 5.03641
162.801 4.91768
162.941 4.91226
163.222 5.08941
163.504 5.58132
163.644 6.05355
163.785 6.82257
163.925 8.14652
164.066 10.6215
164.136 12.7157
164.206 15.8834
164.277 20.9490
164.347 29.6619
164.417 46.3579
164.452 60.9631
164.488 83.7638
164.523 122.038
164.558 191.609
164.575 249.014
164.593 332.153
164.611 456.503
164.628 639.967
164.654 1033.39
164.680 1308.02
164.706 1068.46
164.732 684.049
164.758 431.024
164.784 286.829
164.810 202.604
164.836 150.551
164.862 116.550
164.888 93.2543
164.940 64.4012
164.992 47.9219
165.044 37.6291
165.148 25.9506
165.252 19.7758
165.356 16.0961
165.460 13.7125
165.564 12.0727
165.772 10.0032
165.980 8.78376
166.188 7.99718
166.396 7.45895
166.812 6.80450
167.020 6.62244
167.227 6.53996
167.435 6.62620
167.539 6.80344
167.643 7.18352
167.747 8.02994
167.799 8.84307
