Sn-117(n,tot) ENDF/B-VII.1
Energy(eV) XS(b)
1.00000E-05 59.1230
1.25000E-05 53.4414
1.50000E-05 49.2474
2.00000E-05 43.3603
2.75000E-05 37.7588
3.50000E-05 34.0723
4.25000E-05 31.4110
5.00000E-05 29.3736
6.25000E-05 26.8327
7.50000E-05 24.9571
0.000100000 22.3243
0.000125000 20.5276
0.000150000 19.2014
0.000200000 17.3397
0.000275000 15.5684
0.000350000 14.4026
0.000425000 13.5610
0.000500000 12.9168
0.000625000 12.1133
0.000750000 11.5201
0.00100000 10.6876
0.00125000 10.1194
0.00150000 9.70005
0.00200000 9.11136
0.00275000 8.55122
0.00350000 8.18259
0.00425000 7.91647
0.00500000 7.71274
0.00625000 7.45866
0.00750000 7.27111
0.0100000 7.00785
0.0125000 6.82820
0.0150000 6.69558
0.0200000 6.50943
0.0253000 6.37599
0.0314750 6.26532
0.0376500 6.18314
0.0500000 6.06714
0.0625000 5.98678
0.0750000 5.92746
0.100000 5.84418
0.125000 5.78734
0.150000 5.74539
0.200000 5.68653
0.275000 5.63067
0.350000 5.59419
0.500000 5.54908
0.750000 5.51566
0.875000 5.51650
1.00000 5.54264
1.06325 5.57967
1.12650 5.65830
1.18975 5.84463
1.22138 6.03322
1.25300 6.34736
1.29000 6.90860
1.32700 7.29931
1.36400 6.94521
1.40100 6.38943
1.43844 6.02391
1.47588 5.81757
1.51331 5.69737
1.55075 5.62284
1.62563 5.53966
1.70050 5.49630
1.85025 5.45284
2.00000 5.43069
2.37500 5.40195
2.75000 5.38516
3.50000 5.36218
5.00000 5.33049
7.50000 5.29191
10.0000 5.26034
12.6585 5.23041
13.9878 5.21643
14.6524 5.21020
14.9847 5.20901
15.1509 5.21306
15.2339 5.22274
15.2755 5.23507
15.3170 5.26047
15.3850 5.31813
15.4530 5.25933
15.4885 5.23582
15.5241 5.22281
15.5951 5.21062
15.7372 5.20228
16.0214 5.19649
16.5898 5.18975
17.7265 5.17801
20.0000 5.15549
20.6638 5.14991
20.9956 5.15006
21.1616 5.15759
21.2445 5.17431
21.2860 5.19624
21.3275 5.24368
21.3900 5.34525
21.4525 5.24273
21.4892 5.19828
21.5259 5.17554
21.5993 5.15585
21.7461 5.14374
22.0398 5.13655
22.6270 5.12933
23.8015 5.11747
24.9760 5.10834
25.5633 5.11341
25.7101 5.12212
25.8569 5.14538
25.9303 5.17274
26.0037 5.23088
26.0404 5.28691
26.0771 5.38276
26.1138 5.55958
26.1505 5.90144
26.1828 6.38773
26.2150 6.71248
26.2473 6.38865
26.2795 5.90207
26.3096 5.60574
26.3396 5.43306
26.3697 5.33021
26.3998 5.26582
26.4599 5.19410
26.5200 5.15759
26.6403 5.12327
26.7605 5.10783
27.2416 5.08668
28.2036 5.07197
30.1278 5.05284
31.0898 5.04716
32.0519 5.04917
32.5329 5.05825
33.0139 5.08544
33.2545 5.12026
33.4950 5.20661
33.6152 5.30960
33.7355 5.54512
33.7956 5.79657
33.8558 6.28653
33.8858 6.72094
33.9159 7.40401
33.9459 8.52715
33.9760 10.4030
34.0100 13.6145
34.0440 15.7593
34.0780 13.6256
34.1120 10.4188
34.1482 8.26813
34.1843 7.10677
34.2204 6.45596
34.2566 6.06665
34.3289 5.65317
34.4012 5.45413
34.5457 5.28111
34.6903 5.21532
34.9795 5.18053
35.2686 5.19360
35.8469 5.29908
36.4252 5.55139
36.7144 5.78690
37.0035 6.16767
37.2927 6.82317
37.5818 8.06002
37.7264 9.11945
37.8710 10.7460
38.0155 13.4057
38.1601 18.1486
38.3047 27.7539
38.3770 36.6740
38.4493 51.5964
38.5215 79.1599
38.5577 102.483
38.5938 137.949
38.6300 195.152
38.6481 237.474
38.6661 294.214
38.6842 371.899
38.7023 480.366
38.7203 633.806
38.7384 849.611
38.7538 1090.83
38.7692 1368.25
38.8000 1723.75
38.8154 1629.30
38.8308 1391.21
38.8616 878.332
38.8834 625.445
38.9051 456.675
38.9269 343.994
38.9486 267.020
38.9921 173.521
39.0356 121.981
39.0792 90.8922
39.1227 70.7919
39.2097 47.3052
39.2967 34.6380
39.3837 27.0298
39.4707 22.0974
39.5578 18.7126
39.7318 14.4815
39.9058 12.0251
40.0799 10.4651
40.2539 9.40813
40.6020 8.09963
40.9501 7.34341
41.2981 6.86229
41.6462 6.53455
42.3424 6.12419
43.0385 5.88234
43.7347 5.72507
44.4308 5.61542
45.8231 5.47332
47.2154 5.38527
48.6077 5.32500
50.0000 5.28073
53.0453 5.21422
56.0905 5.16949
62.1810 5.10876
68.2715 5.06578
69.7941 5.05703
71.3168 5.05013
72.0781 5.04881
72.4587 5.04972
72.8394 5.05314
73.2200 5.06269
73.4104 5.07295
73.6007 5.09183
73.7910 5.13088
73.8862 5.16762
73.9814 5.22982
74.0765 5.34687
74.1241 5.44796
74.1717 5.60520
74.2193 5.86722
74.2668 6.34447
74.2906 6.73829
74.3144 7.31503
74.3382 8.17963
74.3620 9.47522
74.3960 12.1439
74.4300 13.9240
74.4640 12.1468
74.4980 9.47852
74.5229 8.13329
74.5478 7.25291
74.5727 6.67520
74.5976 6.28610
74.6474 5.82085
74.6972 5.56868
74.7471 5.41848
74.7969 5.32233
74.8965 5.21121
74.9961 5.15197
75.0957 5.11666
75.2949 5.07823
75.4942 5.05859
75.6934 5.04697
76.0919 5.03390
76.4904 5.02650
76.8888 5.02143
77.6858 5.01417
79.2796 5.00348
80.8735 4.99426
87.2490 4.95963
93.6245 4.92329
100.000 4.88029
105.121 4.83480
107.681 4.80501
110.242 4.76721
111.522 4.74401
112.802 4.71708
114.082 4.68600
115.362 4.65203
116.002 4.63618
116.643 4.62519
117.283 4.62823
117.923 4.67093
118.243 4.72823
118.563 4.83796
118.883 5.05335
119.203 5.50508
119.363 5.91809
119.523 6.57917
119.683 7.70499
119.843 9.79624
119.923 11.5585
120.003 14.2199
120.083 18.4722
120.163 25.8022
120.243 39.8656
120.283 52.1881
120.323 71.5597
120.343 85.6098
120.363 104.188
120.383 129.334
120.403 164.275
120.423 214.247
120.443 287.830
120.463 398.729
120.483 565.773
120.512 911.287
120.540 1150.96
120.555 1090.56
120.569 932.327
120.598 590.091
120.623 390.149
120.649 269.621
120.674 195.510
120.699 147.929
120.750 93.6102
120.801 65.3330
120.851 48.8590
120.902 38.4398
121.003 26.4859
121.104 20.1200
121.205 16.3205
121.307 13.8595
121.408 12.1689
121.610 10.0508
121.813 8.82353
122.015 8.05659
122.218 7.56316
122.622 7.11391
122.825 7.15119
123.027 7.47549
123.230 8.42215
123.331 9.42758
123.432 11.2408
123.533 14.8548
123.584 18.1110
123.635 23.3548
123.685 32.4705
123.736 50.0438
123.761 65.3450
123.786 88.8988
123.812 126.461
123.837 186.912
123.869 300.231
123.900 379.588
123.932 309.071
123.963 197.938
123.997 122.325
124.030 81.0467
124.064 57.6905
124.097 43.5707
124.131 34.4896
124.164 28.3374
124.231 20.8009
124.298 16.5391
124.365 13.8923
124.499 10.8969
124.633 9.31351
124.767 8.36446
125.035 7.31177
125.303 6.75478
125.571 6.41466
126.107 6.02168
126.643 5.80017
127.179 5.65657
128.250 5.47866
129.322 5.37070
130.394 5.29708
132.538 5.20142
134.682 5.14062
136.825 5.09759
141.113 5.03868
145.400 4.99801
149.687 4.96630
153.975 4.93939
158.262 4.91540
158.330 4.91519
158.398 4.91468
158.644 4.91323
158.889 4.91193
159.380 4.90938
160.362 4.90447
162.325 4.89631
163.307 4.89479
163.798 4.89602
164.289 4.90052
164.779 4.91310
165.025 4.92672
165.270 4.95204
165.516 5.00528
165.639 5.05623
165.761 5.14421
165.884 5.31484
165.945 5.46719
166.007 5.71193
166.068 6.14099
166.129 6.98284
166.160 7.73578
166.191 8.92863
166.221 10.9080
166.252 14.2350
166.286 19.8482
166.320 23.5881
166.354 19.8508
166.388 14.2380
166.417 11.0365
166.446 9.08674
166.475 7.88451
166.504 7.11455
166.562 6.23526
166.621 5.78018
166.679 5.51713
166.737 5.35221
166.853 5.16539
166.969 5.06765
167.085 5.01022
167.318 4.94855
167.550 4.91748
167.783 4.89933
168.248 4.87924
168.712 4.86810
169.177 4.86056
170.107 4.84986
171.967 4.83366
173.826 4.81857
177.545 4.78538
181.264 4.74304
183.124 4.71600
184.983 4.68285
186.843 4.64088
188.702 4.58588
189.632 4.55177
190.562 4.51249
191.491 4.46884
192.421 4.42713
192.886 4.41427
193.351 4.41849
193.816 4.46446
194.281 4.61833
194.513 4.78867
194.745 5.09119
194.978 5.65379
195.210 6.78464
195.327 7.79075
195.443 9.36862
195.559 11.9955
195.675 16.7410
195.791 26.3984
195.849 35.3306
195.908 50.1211
195.937 61.3911
195.966 76.8686
195.995 98.9824
196.024 131.608
196.053 182.391
196.082 265.234
196.111 409.042
196.125 518.479
196.140 663.548
196.170 1079.98
196.200 1373.57
196.230 1120.21
196.260 715.685
196.289 455.397
196.319 305.840
196.348 217.497
196.377 162.422
196.406 126.104
196.436 101.189
196.494 70.1492
196.552 52.2855
196.611 41.0990
196.728 28.3329
196.845 21.5498
196.961 17.4919
197.078 14.8549
197.195 13.0358
197.429 10.7330
197.663 9.37049
197.896 8.48750
198.130 7.87832
198.598 7.10905
199.065 6.66530
199.533 6.41893
199.766 6.37128
200.000 6.41356
200.178 6.58261
200.267 6.76985
200.356 7.10544
200.445 7.75498
200.490 8.31972
200.534 9.19595
200.579 10.6426
200.623 13.2298
200.668 18.3250
200.690 22.7272
200.712 29.1075
200.746 42.9651
200.780 52.1608
200.814 42.9541
200.848 29.0809
200.888 19.1051
200.927 13.9934
200.967 11.2377
201.006 9.63165
201.046 8.62143
201.085 7.95123
201.165 7.14369
201.244 6.69345
201.323 6.41568
201.481 6.09905
201.639 5.92624
201.798 5.81714
202.114 5.68330
202.430 5.59975
202.747 5.53935
203.380 5.45264
204.646 5.34079
205.912 5.26703
208.443 5.17201
210.975 5.11212
213.507 5.07053
216.039 5.04065
217.304 5.03003
217.937 5.02651
218.570 5.02541
219.203 5.02978
219.520 5.03683
219.836 5.05162
220.153 5.08503
220.311 5.11823
220.469 5.17703
220.627 5.29474
220.706 5.40278
220.786 5.58185
220.865 5.90905
220.904 6.18395
220.944 6.59826
220.983 7.26299
221.023 8.40143
221.062 10.5232
221.102 14.6634
221.136 20.4782
221.170 24.3413
221.204 20.4620
221.238 14.6654
221.265 11.6043
221.291 9.65673
221.317 8.40538
221.343 7.57580
221.396 6.59919
221.449 6.07967
221.501 5.77306
221.554 5.57870
221.659 5.35560
221.765 5.23766
221.870 5.16783
222.080 5.09251
222.291 5.05451
222.502 5.03238
222.923 5.00822
223.344 4.99526
223.765 4.98691
224.607 4.97599
226.292 4.96211
227.976 4.95170
231.345 4.93461
234.714 4.92009
241.452 4.89537
248.190 4.87405
261.666 4.83633
265.035 4.82748
268.404 4.81907
270.089 4.81543
271.773 4.81344
272.615 4.81469
273.458 4.82221
273.879 4.83427
274.089 4.84652
274.300 4.86859
274.510 4.91385
274.616 4.95646
274.721 5.02888
274.826 5.16667
274.879 5.28731
274.931 5.47717
274.984 5.80049
275.037 6.40647
275.063 6.92214
275.089 7.70018
275.116 8.91124
275.142 10.8057
275.176 14.4146
275.210 16.8112
275.244 14.4045
275.278 10.8070
275.300 9.19908
275.321 8.08118
275.364 6.76269
275.407 6.08074
275.450 5.69378
275.493 5.45620
275.536 5.30090
275.622 5.11787
275.708 5.01867
275.794 4.95905
275.966 4.89408
276.138 4.86123
276.310 4.84225
276.654 4.82207
276.998 4.81183
277.342 4.80570
278.030 4.79851
279.406 4.79077
280.782 4.78547
283.533 4.77652
286.285 4.76811
289.037 4.75999
291.788 4.75305
293.164 4.75146
293.852 4.75221
294.540 4.75553
295.228 4.76529
295.572 4.77609
295.916 4.79648
296.088 4.81381
296.260 4.84016
296.432 4.88279
296.604 4.95783
296.776 5.10811
296.862 5.24674
296.948 5.47809
297.034 5.90568
297.077 6.26886
297.120 6.82468
297.163 7.73026
297.206 9.32644
297.249 12.4124
297.270 15.0282
297.292 18.7690
297.326 27.2001
297.360 32.8243
297.394 27.2025
297.428 18.7718
297.450 15.0016
297.471 12.3844
297.515 9.30779
297.558 7.71452
297.601 6.81330
297.644 6.25897
297.687 5.89762
297.773 5.47176
297.860 5.24076
297.946 5.10222
298.118 4.95131
298.291 4.87520
298.463 4.83145
298.636 4.80389
298.808 4.78531
299.154 4.76233
299.499 4.74892
300.189 4.73387
300.879 4.72522
301.569 4.71912
302.949 4.70992
305.709 4.69482
308.469 4.68001
313.990 4.64646
319.510 4.60310
325.031 4.54099
327.791 4.49685
330.551 4.43654
333.312 4.34660
334.692 4.28143
336.072 4.19231
336.762 4.13404
337.452 4.06256
338.142 3.97346
338.832 3.86210
339.177 3.79806
339.522 3.73202
339.867 3.67553
340.212 3.66676
340.385 3.71452
340.557 3.84587
340.730 4.15518
340.902 4.88016
340.989 5.57996
341.075 6.73284
341.161 8.74449
341.247 12.5382
341.291 15.7651
341.334 20.6343
341.377 28.3912
341.398 34.0870
341.420 41.6421
341.442 52.0190
341.463 66.6588
341.485 88.1002
341.506 120.795
341.528 174.067
341.549 266.245
341.560 338.919
341.571 440.425
341.582 583.966
341.592 783.608
341.611 1282.80
341.630 1642.08
341.649 1346.37
341.668 863.082
341.683 588.938
341.699 416.395
341.714 307.010
341.730 235.128
341.761 151.080
341.792 106.249
341.823 79.6736
341.854 62.6369
341.916 42.7920
341.978 32.0438
342.040 25.5249
342.102 21.2457
342.164 18.2722
342.288 14.4713
342.411 12.2002
342.535 10.7145
342.659 9.68054
342.907 8.35166
343.155 7.54594
343.403 7.01078
343.651 6.63173
344.147 6.13305
344.643 5.82067
345.138 5.60650
345.634 5.44991
346.626 5.23382
347.617 5.08798
349.601 4.88914
350.592 4.81032
351.584 4.73595
352.576 4.66159
353.567 4.58484
354.063 4.54664
354.559 4.51210
355.055 4.49042
355.550 4.50900
355.798 4.55664
356.046 4.66182
356.294 4.88455
356.542 5.37237
356.666 5.82591
356.790 6.55544
356.914 7.79753
357.038 10.0804
357.162 14.7983
357.224 19.1967
357.286 26.4924
357.348 39.7208
357.379 50.6239
357.410 66.7254
357.441 91.5869
357.472 131.982
357.487 161.740
357.503 201.055
357.518 253.233
357.534 321.398
357.567 525.436
357.600 672.400
357.617 640.947
357.633 552.383
357.667 355.889
357.687 266.977
357.708 204.045
357.749 128.342
357.791 88.1250
357.832 64.7887
357.873 50.1763
357.914 40.4513
357.997 28.7202
358.080 22.1583
358.162 18.1094
358.328 13.5344
358.493 11.1116
358.658 9.65730
358.823 8.70483
358.989 8.04184
359.319 7.19101
359.650 6.67648
359.980 6.33560
360.310 6.09475
360.971 5.77845
361.632 5.58067
362.293 5.44514
362.954 5.34614
364.276 5.20997
365.598 5.11924
366.920 5.05309
368.242 5.00172
370.886 4.92450
373.530 4.86611
378.817 4.77402
384.105 4.69151
389.392 4.60066
392.036 4.54500
393.358 4.51228
394.680 4.47464
396.002 4.43054
396.663 4.40619
397.324 4.38252
397.654 4.37323
397.985 4.36924
398.315 4.37796
398.646 4.41888
398.811 4.46677
398.976 4.55284
399.142 4.71300
399.307 5.03134
399.472 5.74219
399.555 6.44578
399.637 7.67937
399.720 10.0767
399.761 12.1892
399.802 15.5142
399.844 21.1022
399.885 31.3149
399.926 51.9764
399.947 70.2534
399.968 97.2767
399.999 157.130
400.030 200.499
400.061 165.451
400.092 107.679
400.113 80.8011
400.133 62.0083
400.173 39.7419
400.213 28.0933
400.253 21.3999
400.293 17.2270
400.333 14.4698
400.413 11.1560
400.494 9.30743
400.574 8.16811
400.734 6.87984
400.895 6.19651
401.055 5.78441
401.216 5.51315
401.376 5.32285
401.697 5.07552
402.018 4.92237
402.660 4.74107
403.302 4.63346
403.944 4.55805
405.228 4.44855
407.796 4.27647
410.364 4.09328
411.648 3.98303
412.932 3.85297
414.216 3.69733
415.500 3.51462
416.142 3.41880
416.784 3.33400
417.426 3.29490
418.068 3.40355
418.389 3.59926
418.710 4.00700
419.031 4.84682
419.352 6.65725
419.512 8.32584
419.673 10.9975
419.833 15.5159
419.914 18.9838
419.994 23.7673
420.074 30.5819
420.154 40.6298
420.235 56.1929
420.315 81.7373
420.395 127.303
420.435 164.202
420.475 217.821
420.516 298.866
420.556 426.833
420.596 637.426
420.636 989.075
420.683 1626.84
420.730 2091.25
420.777 1720.67
420.824 1106.40
420.862 766.262
420.899 548.228
420.937 407.839
420.974 314.657
421.049 204.086
421.124 144.325
421.199 108.574
421.274 85.5007
421.424 58.4353
421.573 43.6638
421.723 34.6703
421.873 28.7527
422.023 24.6380
422.323 19.4540
422.622 16.6328
422.772 15.9591
422.922 16.1603
422.997 17.0399
423.072 19.3404
423.109 21.7008
423.147 25.7917
423.184 33.3442
423.221 47.6625
423.256 68.7239
423.290 82.7213
423.324 68.4620
423.359 47.1349
423.393 33.2710
423.428 25.5356
423.463 21.0419
423.498 18.2732
423.567 15.1809
423.637 13.5611
423.706 12.5767
423.776 11.9102
423.915 11.0411
424.193 10.0440
424.470 9.41726
425.026 8.58541
425.582 8.02537
426.694 7.29609
427.806 6.83729
428.917 6.52108
430.029 6.28962
432.253 5.97246
434.476 5.76369
436.699 5.61390
441.146 5.40604
445.593 5.25409
447.817 5.18371
450.040 5.10875
452.264 5.01871
453.375 4.96210
454.487 4.89217
455.043 4.85037
455.599 4.80330
456.155 4.75202
456.711 4.70385
456.989 4.68909
457.267 4.69354
457.544 4.74400
457.822 4.91131
457.961 5.09457
458.100 5.41677
458.239 6.00786
458.378 7.17209
458.517 9.75328
458.587 12.2956
458.656 16.7208
458.726 25.2593
458.760 32.7311
458.795 44.3513
458.830 63.6862
458.865 98.2436
458.882 126.228
458.899 166.021
458.917 224.223
458.934 308.096
458.962 504.746
458.990 648.267
459.018 534.565
459.046 345.380
459.075 217.962
459.103 146.089
459.132 104.376
459.161 78.7387
459.189 61.9286
459.218 50.4336
459.275 36.1130
459.333 27.8675
459.390 22.6891
459.505 16.7426
459.619 13.5492
459.734 11.6184
459.849 10.3491
459.963 9.46275
460.192 8.32388
460.422 7.63567
460.651 7.18086
460.880 6.86068
461.339 6.44292
461.797 6.18456
462.256 6.00975
462.714 5.88379
463.631 5.71426
464.548 5.60497
465.466 5.52811
466.383 5.47069
468.217 5.38952
470.051 5.33379
473.719 5.25971
477.387 5.21058
481.056 5.17432
484.724 5.14604
486.558 5.13509
487.475 5.13432
487.934 5.14829
488.163 5.19479
488.277 5.29755
488.335 5.44899
488.363 5.59786
488.392 5.83976
488.426 6.26999
488.460 6.55667
488.494 6.26965
488.528 5.83903
488.573 5.50319
488.618 5.34584
488.707 5.22113
488.887 5.15474
489.245 5.12779
489.962 5.11603
491.396 5.10622
494.264 5.09161
500.000 5.06735
506.568 5.04459
513.136 5.02597
516.420 5.01835
519.704 5.01296
521.346 5.01253
522.988 5.01775
523.809 5.02766
524.219 5.03810
524.630 5.05741
525.040 5.09829
525.245 5.13811
525.451 5.20848
525.553 5.26591
525.656 5.35070
525.758 5.48343
525.861 5.70805
525.964 6.13253
526.015 6.50170
526.066 7.08077
526.118 8.05794
526.169 9.87342
526.195 11.4061
526.220 13.6865
526.246 17.2050
526.271 22.6068
526.306 33.1621
526.340 40.1956
526.374 33.1632
526.409 22.6083
526.433 17.4811
526.457 14.0582
526.481 11.7742
526.505 10.2142
526.553 8.32290
526.601 7.28383
526.649 6.65968
526.697 6.25800
526.793 5.79194
526.889 5.54321
526.985 5.39544
527.177 5.23649
527.369 5.15751
527.560 5.11288
527.944 5.06744
528.328 5.04685
528.712 5.03704
529.480 5.03387
530.248 5.04978
530.632 5.07023
531.016 5.10959
531.208 5.14315
531.400 5.19424
531.592 5.27702
531.784 5.42325
531.880 5.54234
531.976 5.71792
532.072 5.99188
532.167 6.45253
532.263 7.31650
532.311 8.06118
532.359 9.21834
532.407 11.1447
532.455 14.6506
532.479 17.5418
532.503 21.7739
532.527 28.1140
532.551 37.5587
532.586 57.1277
532.620 70.1214
532.654 57.0707
532.689 37.5632
532.710 28.9411
532.731 22.9396
532.774 15.8013
532.817 12.0765
532.859 9.95054
532.902 8.64021
532.944 7.78133
533.030 6.76674
533.115 6.21575
533.200 5.88453
533.370 5.52392
533.541 5.34243
533.711 5.23844
533.882 5.17332
534.052 5.12982
534.393 5.07697
534.734 5.04717
535.415 5.01611
536.097 5.00068
536.779 4.99158
538.142 4.98115
540.869 4.97060
543.595 4.96417
546.322 4.95945
549.048 4.95676
550.412 4.95750
551.775 4.96376
552.457 4.97425
552.797 4.98510
553.138 5.00499
553.479 5.04684
553.650 5.08731
553.820 5.15830
553.990 5.29987
554.076 5.43015
554.161 5.64714
554.246 6.04717
554.289 6.38611
554.331 6.90362
554.374 7.74405
554.416 9.21851
554.459 12.0493
554.480 14.4333
554.502 17.8434
554.536 25.5974
554.570 30.7479
554.604 25.5749
554.639 17.8454
554.675 12.6780
554.711 9.87659
554.747 8.30177
554.783 7.35624
554.820 6.75248
554.856 6.34648
554.928 5.85452
555.001 5.58073
555.073 5.41346
555.218 5.22862
555.363 5.13432
555.507 5.07982
555.797 5.02247
556.087 4.99438
556.376 4.97847
556.955 4.96182
558.114 4.94854
559.272 4.94277
561.588 4.93671
563.905 4.93291
566.222 4.93033
568.538 4.93001
569.697 4.93260
570.855 4.94281
571.434 4.95809
571.724 4.97345
572.013 5.00120
572.303 5.05878
