Sb-123(n,tot) ENDF/B-VII.1
Energy(eV) XS(b)
1.00000E-05 198.257
1.25000E-05 177.715
1.50000E-05 162.552
2.00000E-05 141.267
2.75000E-05 121.014
3.50000E-05 107.686
4.25000E-05 98.0636
5.00000E-05 90.6974
6.25000E-05 81.5107
7.50000E-05 74.7293
0.000100000 65.2105
0.000125000 58.7145
0.000150000 53.9194
0.000200000 47.1886
0.000275000 40.7843
0.000350000 36.5695
0.000425000 33.5267
0.000500000 31.1974
0.000625000 28.2924
0.000750000 26.1480
0.00100000 23.1380
0.00125000 21.0839
0.00150000 19.5676
0.00200000 17.4393
0.00275000 15.4143
0.00350000 14.0817
0.00425000 13.1197
0.00500000 12.3832
0.00625000 11.4648
0.00750000 10.7869
0.0100000 9.83535
0.0125000 9.18608
0.0150000 8.70686
0.0200000 8.03428
0.0253000 7.55226
0.0314750 7.15255
0.0376500 6.85580
0.0500000 6.43711
0.0625000 6.14716
0.0750000 5.93319
0.100000 5.63295
0.125000 5.42813
0.150000 5.27698
0.200000 5.06486
0.275000 4.86302
0.350000 4.73009
0.500000 4.56035
0.750000 4.39989
1.00000 4.30323
1.50000 4.18622
2.00000 4.11397
2.75000 4.04169
3.50000 3.99079
5.00000 3.91917
7.50000 3.84187
10.0000 3.80118
12.5000 3.82727
13.7500 3.90259
15.0000 4.07967
16.2500 4.49246
16.8750 4.89075
17.5000 5.55095
18.1250 6.71433
18.7500 8.95779
19.0625 10.9079
19.3750 13.9336
19.6875 18.9357
20.0000 27.9679
20.1646 35.9167
20.3292 48.0502
20.4938 67.8022
20.6584 102.937
20.7407 131.673
20.8229 174.148
20.9052 240.544
20.9875 352.319
21.0698 561.156
21.1110 740.164
21.1521 1016.24
21.1933 1470.60
21.2344 2281.76
21.2550 2937.78
21.2756 3879.24
21.2961 5256.27
21.3167 7264.03
21.3484 11676.3
21.3800 14663.5
21.4117 11791.8
21.4433 7411.20
21.4712 4843.93
21.4991 3298.51
21.5270 2354.59
21.5549 1752.57
21.6106 1070.63
21.6664 719.430
21.7222 516.751
21.7780 389.736
21.8895 245.716
22.0011 170.278
22.1126 125.852
22.2242 97.4627
22.3357 78.1960
22.5588 54.4107
22.7819 40.7864
23.0050 32.2251
23.2281 26.4748
23.6743 19.4304
24.1205 15.4102
24.5667 12.8802
25.0129 11.1736
25.9053 9.06411
26.7977 7.84169
27.6901 7.05944
28.5825 6.52257
30.3673 5.84213
32.1521 5.43354
33.9369 5.16245
35.7217 4.96927
39.2912 4.70942
42.8608 4.53742
44.6456 4.47131
45.5380 4.44419
46.4304 4.42490
47.3228 4.42461
47.7690 4.44180
48.2152 4.48611
48.6614 4.59110
48.8845 4.69184
49.1076 4.85724
49.3307 5.14505
49.5538 5.69152
49.6654 6.16050
49.7769 6.88043
49.8885 8.05577
50.0000 10.1444
50.1137 14.4663
50.1706 18.5095
50.2274 25.3256
50.2843 38.0530
50.3127 48.9431
50.3411 65.6872
50.3695 93.1124
50.3980 141.667
50.4122 180.605
50.4264 236.013
50.4406 316.237
50.4548 431.926
50.4774 694.101
50.5000 873.636
50.5226 705.643
50.5452 446.364
50.5612 318.015
50.5773 232.477
50.5933 175.454
50.6093 136.517
50.6413 89.2670
50.6734 63.2559
50.7054 47.5723
50.7375 37.4400
50.8016 25.6054
50.8656 19.2240
50.9297 15.3921
50.9938 12.9081
51.0579 11.2035
51.1861 9.07240
51.3143 7.83457
51.4424 7.04782
51.5706 6.51412
51.8269 5.85192
52.0833 5.46753
52.3396 5.22153
52.5960 5.05268
53.1087 4.83834
53.6214 4.70885
54.6467 4.55928
55.6721 4.47297
56.6975 4.41424
58.7483 4.33369
60.7990 4.27528
62.8498 4.22673
64.9005 4.18420
65.9259 4.17052
66.1823 4.17293
66.4386 4.18825
66.5668 4.21194
66.6309 4.23497
66.6950 4.27443
66.7591 4.34891
66.7911 4.41302
66.8231 4.51210
66.8552 4.67547
66.8872 4.96767
66.9193 5.54477
66.9353 6.04395
66.9513 6.77365
66.9757 8.35466
67.0000 9.40895
67.0244 8.35517
67.0487 6.77351
67.0675 5.94363
67.0862 5.41236
67.1049 5.07036
67.1237 4.84326
67.1612 4.57570
67.1986 4.43255
67.2361 4.34785
67.2736 4.29378
67.3486 4.23116
67.4985 4.17682
67.6484 4.15334
67.9483 4.13127
68.2481 4.11907
69.4475 4.08781
70.6469 4.06215
71.8464 4.04148
72.4461 4.03618
73.0458 4.03917
73.6455 4.06037
74.2452 4.12551
74.5450 4.19477
74.8449 4.31493
75.1447 4.53412
75.4446 4.96837
75.5945 5.35191
75.7445 5.95302
75.8944 6.95619
76.0443 8.78362
76.1942 12.5751
76.2692 16.1683
76.3442 22.2932
76.4191 33.8935
76.4566 43.9442
76.4941 59.5894
76.5316 85.6140
76.5503 105.447
76.5690 132.739
76.5878 171.318
76.6065 227.329
76.6253 310.350
76.6440 433.208
76.6580 556.418
76.6720 698.301
76.7000 881.465
76.7140 834.530
76.7280 714.010
76.7560 452.860
76.7787 308.517
76.8014 217.649
76.8241 160.034
76.8468 122.204
76.8922 78.0932
76.9376 54.6974
76.9830 40.9231
77.0284 32.1582
77.1192 22.0600
77.2100 16.6745
77.3008 13.4574
77.3916 11.3765
77.4824 9.94884
77.6640 8.16119
77.8456 7.11842
78.0272 6.45195
78.2088 5.99701
78.5719 5.42713
78.9351 5.09169
79.2983 4.87397
79.6615 4.72240
80.3879 4.52598
81.1143 4.40367
82.5670 4.25545
84.0198 4.16277
85.4725 4.09333
88.3780 3.98049
91.2835 3.87322
94.1890 3.75380
95.6418 3.68659
97.0945 3.61603
98.5473 3.55263
100.000 3.54115
100.601 3.58661
101.203 3.70749
101.804 3.98951
102.406 4.65171
102.706 5.29520
103.007 6.36691
103.308 8.26283
103.608 11.9277
103.759 15.1153
103.909 20.0516
104.059 28.1933
104.210 42.7933
104.285 54.7760
104.360 72.4801
104.435 100.045
104.510 145.957
104.586 230.255
104.623 300.954
104.661 407.098
104.698 576.131
104.736 862.604
104.774 1383.35
104.811 2365.79
104.846 3821.98
104.880 4828.80
104.915 3918.54
104.949 2487.21
104.974 1753.69
105.000 1269.37
105.025 949.500
105.050 732.700
105.101 471.594
105.151 328.926
105.202 242.998
105.253 187.552
105.354 122.854
105.455 87.8749
105.556 66.8289
105.657 53.1234
105.758 43.6908
105.961 31.8261
106.163 24.8801
106.365 20.4325
106.567 17.3959
106.972 13.5936
107.376 11.3650
107.781 9.92833
108.186 8.93847
108.995 7.68087
109.804 6.92726
110.613 6.43086
111.422 6.08149
113.040 5.62500
114.659 5.34121
116.277 5.14781
117.895 5.00724
121.132 4.81480
124.368 4.68589
125.986 4.63463
127.605 4.59061
128.414 4.57490
128.818 4.57244
129.223 4.58015
129.627 4.61620
129.830 4.66242
130.032 4.75695
130.133 4.84144
130.234 4.97398
130.335 5.19480
130.437 5.59321
130.538 6.40588
130.588 7.15997
130.639 8.41134
130.689 10.6962
130.715 12.5986
130.740 15.4278
130.765 19.8871
130.791 27.3205
130.816 40.5073
130.841 64.5408
130.866 101.587
130.890 127.340
130.915 104.592
130.939 68.3145
130.961 46.2044
130.983 32.9852
131.006 24.8941
131.028 19.7622
131.072 13.9332
131.116 10.9266
131.160 9.17833
131.205 8.07805
131.293 6.81650
131.382 6.14517
131.470 5.74417
131.559 5.48377
131.647 5.30414
131.824 5.07693
132.001 4.94227
132.178 4.85450
132.355 4.79332
132.710 4.71398
133.064 4.66466
133.772 4.60544
134.480 4.56945
135.188 4.54388
136.604 4.50723
139.437 4.45742
142.270 4.42025
147.935 4.36181
153.600 4.31360
159.265 4.26961
164.931 4.22575
170.596 4.17802
172.012 4.16541
173.429 4.15400
174.137 4.15084
174.491 4.15142
174.845 4.15566
175.199 4.16902
175.376 4.18403
175.553 4.21235
175.730 4.27247
175.819 4.33026
175.907 4.43025
175.996 4.62449
176.040 4.79816
176.084 5.07718
176.128 5.56710
176.173 6.52888
176.195 7.39310
176.217 8.75807
176.239 11.0251
176.261 14.8576
176.286 21.3273
176.310 25.6213
176.335 21.3004
176.359 14.8588
176.378 11.4939
176.396 9.33394
176.415 7.94120
176.434 7.01942
176.471 5.92797
176.508 5.34372
176.546 4.99787
176.583 4.77847
176.658 4.52634
176.732 4.39257
176.807 4.31333
176.956 4.22754
177.105 4.18398
177.255 4.15841
177.553 4.12991
177.852 4.11395
178.150 4.10304
178.747 4.08723
179.941 4.06231
181.135 4.03802
182.329 4.01198
183.523 3.98495
184.120 3.97376
184.717 3.97309
185.016 3.98807
185.165 4.00733
185.314 4.04532
185.464 4.12764
185.538 4.20693
185.613 4.34327
185.687 4.60459
185.725 4.83337
185.762 5.19417
185.799 5.80670
185.837 6.95368
185.855 7.93010
185.874 9.39096
185.893 11.6683
185.911 15.1946
185.936 21.9725
185.960 26.4905
185.984 21.9726
186.009 15.1934
186.031 11.1574
186.053 8.77032
186.075 7.33324
186.097 6.42653
186.141 5.41139
186.186 4.89516
186.230 4.59857
186.274 4.41349
186.362 4.20425
186.451 4.09402
186.539 4.02832
186.716 3.95528
187.069 3.89021
187.422 3.85731
188.129 3.82068
188.835 3.81882
189.189 3.84625
189.542 3.91704
189.895 4.07902
190.249 4.45339
190.425 4.81325
190.602 5.40683
190.779 6.44602
190.955 8.42443
191.044 10.1229
191.132 12.7175
191.220 16.9181
191.309 24.2670
191.353 30.1536
191.397 38.6475
191.441 51.4635
191.485 71.8747
191.530 107.046
191.552 134.693
191.574 173.592
191.596 230.687
191.618 317.159
191.640 452.174
191.662 662.882
191.691 1077.64
191.720 1368.66
191.749 1114.59
191.778 711.005
191.801 492.529
191.823 352.573
191.846 261.751
191.869 201.494
191.914 129.922
191.959 91.3929
192.005 68.3713
192.050 53.6108
192.140 36.3914
192.231 27.0835
192.321 21.4719
192.412 17.8081
192.502 15.2734
192.683 12.0651
192.864 10.1702
193.045 8.94544
193.226 8.10127
193.589 7.03165
193.951 6.39489
194.313 5.97883
194.675 5.68897
195.399 5.31776
196.123 5.10244
196.485 5.03895
196.847 5.02536
197.028 5.06885
197.119 5.12479
197.209 5.23204
197.300 5.45344
197.345 5.65689
197.390 5.98839
197.435 6.57720
197.481 7.74604
197.503 8.80545
197.526 10.4920
197.549 13.3207
197.571 18.1582
197.596 26.1785
197.620 31.4943
197.645 26.1402
197.669 18.1492
197.687 14.0410
197.705 11.3875
197.724 9.65689
197.742 8.49571
197.778 7.11287
197.815 6.36528
197.851 5.91903
197.888 5.63373
197.960 5.30189
198.033 5.12221
198.106 5.01302
198.252 4.88916
198.397 4.82088
198.543 4.77667
198.835 4.71983
199.417 4.65308
200.000 4.61075
200.488 4.58835
200.976 4.58714
201.220 4.60967
201.342 4.63737
201.463 4.69044
201.585 4.80210
201.646 4.90727
201.707 5.08398
201.768 5.41272
201.799 5.69243
201.829 6.12057
201.860 6.81757
201.890 8.04355
201.921 10.4045
201.936 12.3899
201.951 15.2314
201.976 21.6714
202.000 25.9641
202.024 21.6717
202.049 15.2302
202.065 12.2637
202.081 10.2306
202.113 7.87438
202.145 6.67714
202.177 6.00695
202.209 5.59680
202.241 5.32990
202.305 5.01666
202.369 4.84652
202.433 4.74399
202.560 4.63068
202.688 4.57167
202.816 4.53609
203.072 4.49502
203.328 4.47099
203.584 4.45415
204.095 4.42988
205.118 4.39548
206.141 4.36833
208.188 4.32313
210.234 4.28341
212.280 4.24455
213.303 4.22421
214.327 4.20286
215.350 4.18197
215.861 4.17446
216.373 4.17527
216.629 4.18368
216.884 4.20420
217.140 4.24966
217.396 4.35189
217.524 4.44840
217.652 4.60559
217.780 4.87671
217.908 5.38469
218.035 6.46313
218.099 7.49921
218.163 9.27350
218.227 12.6480
218.259 15.5692
218.291 20.0821
218.323 27.5498
218.355 40.8269
218.387 66.8788
218.403 89.1639
218.419 121.205
218.432 155.570
218.445 195.043
218.470 247.353
218.496 202.548
218.521 130.591
218.546 83.7390
218.572 57.0774
218.597 41.3907
218.622 31.7070
218.647 25.3397
218.673 20.9851
218.723 15.5723
218.773 12.4629
218.824 10.5156
218.925 8.29864
219.026 7.12122
219.127 6.41725
219.228 5.95890
219.329 5.64238
219.531 5.24081
219.732 5.00194
219.934 4.84615
220.136 4.73765
220.540 4.59768
220.944 4.51201
221.751 4.41288
222.559 4.35786
223.366 4.32745
223.770 4.32400
223.972 4.32887
224.174 4.34359
224.376 4.38136
224.477 4.42042
224.578 4.49031
224.679 4.63035
224.729 4.75817
224.779 4.96747
224.830 5.34420
224.855 5.65388
224.880 6.11289
224.906 6.83175
224.931 8.01683
224.956 10.1030
224.981 13.8972
225.006 19.6734
225.030 23.5212
225.054 19.6731
225.079 13.8958
225.101 10.4544
225.123 8.42556
225.145 7.20135
225.167 6.42766
225.211 5.55874
225.255 5.11689
225.299 4.86315
225.343 4.70525
225.431 4.52678
225.519 4.43318
225.607 4.37773
225.783 4.31710
225.960 4.28526
226.136 4.26560
226.488 4.24162
227.192 4.21444
227.897 4.19544
229.306 4.16356
230.715 4.13330
232.124 4.10228
233.533 4.07134
234.238 4.05923
234.942 4.06022
235.294 4.07921
235.647 4.14866
235.823 4.24785
235.911 4.34386
235.999 4.51014
236.087 4.83380
236.131 5.12239
236.175 5.58668
236.219 6.40120
236.263 7.99771
236.285 9.42176
236.307 11.6743
236.329 15.4045
236.351 21.6878
236.376 32.3218
236.400 39.4163
236.425 32.3245
236.449 21.6906
236.464 16.9659
236.480 13.6766
236.511 9.79878
236.541 7.78543
236.572 6.63998
236.603 5.93542
236.633 5.47424
236.695 4.93011
236.756 4.63455
236.818 4.45737
236.940 4.26486
237.186 4.11510
237.432 4.06468
237.923 4.06242
238.415 4.16696
238.660 4.28997
238.906 4.50799
239.152 4.90932
239.397 5.70552
239.520 6.40639
239.643 7.49676
239.766 9.29759
239.889 12.5140
240.012 18.9751
240.073 24.8683
240.135 34.4979
240.196 51.6267
240.227 65.4875
240.257 85.6539
240.288 116.227
240.319 164.759
240.350 245.296
240.380 381.173
240.415 619.142
240.450 787.714
240.485 643.220
240.520 411.291
240.547 287.148
240.574 206.779
240.601 154.590
240.627 119.666
240.681 78.1122
240.735 55.6354
240.789 42.1670
240.842 33.5073
240.950 23.3793
241.057 17.8921
241.165 14.5710
241.272 12.3981
241.380 10.8919
241.595 8.98131
241.810 7.84848
242.025 7.11411
242.240 6.60650
242.670 5.96095
243.100 5.57438
243.530 5.32035
243.960 5.14206
244.820 4.91007
245.680 4.76660
246.540 4.66928
247.400 4.59884
249.120 4.50311
250.840 4.44023
252.560 4.39494
254.280 4.36007
257.720 4.30812
261.160 4.26905
268.040 4.20708
274.920 4.14985
278.360 4.11853
281.800 4.08246
285.240 4.03782
286.960 4.01022
288.680 3.97723
290.400 3.93652
292.120 3.88493
292.980 3.85488
293.840 3.82779
294.270 3.82637
294.485 3.83782
294.700 3.87149
294.915 3.96381
295.023 4.06517
295.130 4.25599
295.238 4.65879
295.292 5.04157
295.345 5.68784
295.399 6.89063
295.426 7.90817
295.453 9.44282
295.480 11.9026
295.507 16.0948
295.534 23.7593
295.560 38.2998
295.585 60.2450
295.610 75.9178
295.635 62.7573
295.660 41.4401
295.687 26.3086
295.715 18.2184
295.742 13.7112
295.770 11.0211
295.798 9.29416
295.825 8.12884
295.880 6.70752
295.935 5.90343
295.991 5.40508
296.101 4.84076
296.211 4.54371
296.321 4.36781
296.542 4.18129
296.983 4.07142
297.424 4.15448
297.645 4.29140
297.866 4.54686
298.086 5.02556
298.307 5.97827
298.417 6.81425
298.527 8.11037
298.638 10.2356
298.748 13.9990
298.858 21.4427
298.914 28.1413
298.969 38.8947
299.024 57.5815
299.051 72.3828
299.079 93.3670
299.107 124.389
299.134 171.835
299.162 246.826
299.189 365.676
299.225 595.619
299.260 759.693
299.295 621.255
299.331 397.716
299.354 291.320
299.378 218.112
299.425 132.882
299.472 89.2470
299.520 64.5448
299.567 49.3415
299.614 39.3506
299.708 27.4550
299.803 20.8950
299.897 16.8800
300.086 12.3900
300.275 10.0373
300.464 8.63618
300.652 7.72615
300.841 7.09773
301.219 6.30479
301.596 5.85760
301.785 5.73167
301.974 5.71317
302.068 5.80510
302.162 6.11177
302.210 6.48384
302.257 7.25761
302.280 7.97417
302.304 9.14182
302.328 11.1453
302.351 14.6408
302.376 20.2719
302.400 23.9991
302.425 20.2244
302.449 14.5942
302.470 11.4125
302.490 9.45632
302.511 8.23902
302.531 7.45345
302.572 6.54219
302.614 6.06190
302.655 5.77620
302.696 5.59157
302.778 5.36933
302.943 5.15375
303.107 5.03996
303.437 4.90295
303.766 4.81095
304.424 4.68096
305.082 4.58802
306.399 4.45825
307.716 4.36795
310.349 4.23865
312.982 4.13248
315.615 4.01975
316.932 3.95240
318.249 3.87248
318.907 3.82716
319.565 3.77969
320.224 3.73579
320.882 3.71561
321.211 3.73299
321.540 3.79564
321.870 3.95629
322.199 4.34896
322.363 4.73542
322.528 5.38040
322.693 6.51700
322.857 8.68610
323.022 13.3750
323.104 17.9281
323.186 25.8032
323.227 32.0340
323.269 40.8876
323.310 54.0466
323.351 74.5062
323.392 108.563
323.433 169.664
323.454 219.343
323.474 290.385
323.495 394.830
323.515 546.463
323.548 893.271
323.580 1140.93
323.612 933.974
323.645 598.763
323.675 389.317
323.705 265.824
323.735 191.360
323.765 144.220
323.825 91.0685
323.886 63.6595
323.946 47.7485
324.006 37.6897
324.126 26.1205
324.247 19.9241
324.367 16.1905
324.488 13.7495
324.608 12.0554
324.849 9.89828
325.090 8.61020
325.330 7.76857
325.571 7.18217
326.053 6.42812
326.535 5.97044
327.016 5.66620
327.498 5.45089
328.461 5.17017
329.424 5.00560
329.906 4.95947
330.147 4.95056
330.388 4.96016
330.628 5.01101
330.749 5.07202
330.869 5.18783
330.990 5.42956
331.050 5.65615
331.110 6.03627
331.170 6.73939
331.200 7.33514
331.230 8.24337
331.260 9.71384
331.291 12.2801
331.321 17.1651
331.336 21.2601
331.351 27.0381
331.375 40.4191
331.400 49.2880
331.425 40.3613
331.449 27.0353
331.472 19.0084
331.495 14.2908
331.517 11.4652
331.540 9.68916
331.585 7.70821
331.630 6.70279
331.675 6.12819
331.721 5.77028
331.811 5.36664
331.901 5.15497
331.992 5.02951
332.172 4.89229
332.353 4.82062
332.534 4.77726
332.895 4.72916
333.257 4.71125
333.438 4.71498
333.618 4.73459
333.799 4.78956
333.889 4.84730
333.980 4.95064
334.070 5.15621
334.115 5.34188
334.160 5.64207
334.206 6.17233
334.251 7.22403
334.273 8.17129
334.296 9.68403
334.319 12.2208
334.341 16.5333
334.366 23.7072
334.390 28.4627
334.415 23.6750
334.439 16.5302
334.455 13.2044
334.471 10.9345
334.504 8.32221
334.536 6.99913
334.568 6.25817
334.601 5.80700
334.633 5.51357
334.697 5.16898
334.762 4.98220
334.827 4.86947
334.956 4.74491
335.085 4.67989
335.214 4.64063
335.473 4.59515
335.731 4.56841
335.990 4.54964
336.506 4.52252
337.540 4.48414
338.574 4.45392
340.641 4.40367
342.709 4.35925
344.776 4.31475
345.810 4.29045
346.844 4.26341
347.877 4.23319
348.394 4.21826
348.911 4.20808
349.169 4.20874
349.428 4.21908
349.686 4.25061
349.945 4.33277
350.074 4.41557
350.203 4.55517
350.332 4.80303
350.462 5.27898
350.591 6.31089
350.655 7.31409
350.720 9.04922
350.785 12.3691
350.817 15.2558
350.849 19.7455
350.881 27.1753
350.914 40.4696
350.946 66.5470
350.962 88.9664
350.978 121.283
350.991 156.161
351.004 196.383
351.030 250.163
351.056 205.623
351.082 133.214
351.103 91.7719
351.125 65.8914
351.146 49.4476
351.168 38.7132
351.210 26.1504
351.253 19.4731
351.296 15.5077
351.339 12.9678
351.425 10.0139
351.511 8.41252
351.596 7.44246
351.682 6.80542
351.768 6.36194
351.939 5.79530
352.111 5.45603
352.282 5.23389
352.454 5.07889
352.797 4.87883
353.139 4.75668
353.482 4.67479
353.825 4.61618
354.511 4.53767
355.197 4.48702
356.569 4.42394
357.941 4.38438
359.313 4.35573
362.056 4.31359
364.800 4.28004
367.543 4.24814
368.915 4.23095
369.601 4.22171
370.287 4.21218
370.973 4.20373
371.316 4.20180
371.659 4.20532
371.830 4.21196
372.002 4.22568
372.173 4.25351
372.345 4.31239
372.430 4.36605
372.516 4.45112
372.602 4.59377
372.687 4.85216
372.773 5.37715
372.816 5.85947
372.859 6.64816
372.902 8.05389
372.945 10.8412
372.966 13.3519
372.988 17.3067
373.009 23.8294
373.030 34.7507
373.055 54.3333
373.080 68.3432
373.105 56.7315
373.130 37.8523
373.150 27.0694
373.171 20.2984
373.192 16.0144
373.212 13.2036
373.253 9.92209
373.294 8.17742
373.336 7.14094
373.377 6.47823
373.459 5.70509
373.541 5.28614
373.624 5.03182
373.706 4.86465
373.788 4.74813
373.953 4.59895
374.117 4.50917
374.282 4.45000
374.447 4.40834
374.776 4.35377
375.105 4.31952
375.764 4.27800
376.422 4.25247
377.080 4.23397
378.397 4.20614
381.031 4.16111
383.665 4.11344
384.982 4.08488
386.299 4.05079
387.615 4.00849
388.932 3.95413
389.591 3.92097
390.249 3.88345
390.908 3.84300
391.566 3.80740
391.895 3.79966
392.225 3.81152
392.554 3.86930
392.883 4.04217
393.048 4.22607
393.212 4.54561
393.377 5.12760
393.541 6.27113
393.624 7.26842
393.706 8.80747
393.788 11.3157
393.871 15.7170
393.953 24.2939
