I-127(n,tot) ENDF/B-VII.1
Energy(eV) XS(b)
1.00000E-05 312.696
1.25000E-05 280.076
1.50000E-05 255.997
2.00000E-05 222.198
2.75000E-05 190.039
3.50000E-05 168.874
4.25000E-05 153.594
5.00000E-05 141.897
6.25000E-05 127.309
7.50000E-05 116.541
0.000100000 101.425
0.000125000 91.1101
0.000150000 83.4957
0.000200000 72.8075
0.000275000 62.6377
0.000350000 55.9447
0.000425000 51.1130
0.000500000 47.4140
0.000625000 42.8009
0.000750000 39.3957
0.00100000 34.6158
0.00125000 31.3539
0.00150000 28.9460
0.00200000 25.5661
0.00275000 22.3502
0.00350000 20.2338
0.00425000 18.7059
0.00500000 17.5362
0.00625000 16.0774
0.00750000 15.0006
0.0100000 13.4891
0.0125000 12.4576
0.0150000 11.6962
0.0200000 10.6274
0.0253000 9.86121
0.0314750 9.22574
0.0376500 8.75383
0.0500000 8.08776
0.0625000 7.62626
0.0750000 7.28551
0.100000 6.80704
0.125000 6.48031
0.150000 6.23895
0.200000 5.89975
0.275000 5.57622
0.350000 5.36255
0.500000 5.08860
0.750000 4.82785
1.00000 4.66938
1.50000 4.47535
2.00000 4.35381
2.58500 4.25371
3.17000 4.17839
3.75500 4.11966
4.04750 4.10058
4.19375 4.10660
4.26688 4.13174
4.34000 4.22409
4.41000 4.38036
4.48000 4.21536
4.54500 4.11742
4.61000 4.07911
4.74000 4.04772
5.00000 4.01916
5.62500 3.97366
6.25000 3.93520
7.50000 3.86843
10.0000 3.76124
10.3150 3.75172
10.6300 3.78843
10.7000 3.83763
10.7700 3.78382
10.9406 3.73436
11.1113 3.72338
11.4525 3.71007
12.1350 3.68836
13.5000 3.65305
14.8650 3.63209
16.2300 3.68423
16.3000 3.72977
16.3700 3.68859
16.5969 3.65848
16.8238 3.66738
17.2775 3.70338
18.1850 3.88745
18.6388 4.12296
19.0925 4.66353
19.3194 5.22923
19.5463 6.30230
19.6597 7.23587
19.7731 8.70006
19.8866 11.1767
20.0000 15.8378
20.0942 23.6869
20.1413 30.6277
20.1885 41.6846
20.2356 60.7337
20.2827 97.1707
20.3062 128.767
20.3298 177.265
20.3416 211.288
20.3534 254.487
20.3651 309.386
20.3769 378.426
20.3914 484.720
20.4060 606.586
20.4350 761.369
20.4495 718.600
20.4641 612.906
20.4931 386.333
20.5139 273.625
20.5347 198.952
20.5556 149.459
20.5764 115.824
20.6180 75.2361
20.6597 53.0189
20.7013 39.6841
20.7429 31.1013
20.8262 21.1221
20.9095 15.7734
20.9927 12.5796
21.1593 9.11479
21.3258 7.37205
21.4924 6.37280
21.8255 5.33091
22.1585 4.83227
22.4916 4.56366
23.1578 4.32796
24.4902 4.34714
25.8225 4.79228
27.1549 5.98132
27.8210 7.22941
28.4872 9.53505
28.8203 11.4793
29.1534 14.4356
29.4865 19.2359
29.8196 27.7825
29.9861 34.8021
30.1526 45.2471
30.3192 61.7577
30.4857 90.0855
30.6523 144.777
30.7356 193.427
30.8188 271.571
30.9021 408.059
30.9854 675.597
31.0270 913.928
31.0686 1290.31
31.1103 1912.62
31.1519 2958.20
31.1985 4732.33
31.2450 5914.99
31.2916 4732.82
31.3381 2959.70
31.3876 1770.93
31.4371 1128.56
31.4866 768.359
31.5361 552.497
31.5855 414.796
31.6350 322.298
31.7340 210.304
31.8330 148.032
31.9319 110.022
32.1299 68.0746
32.3278 46.7263
32.5258 34.4407
32.7237 26.7535
32.9217 21.6491
33.3175 15.5826
33.7134 12.3899
34.1093 10.7114
34.5052 10.0251
34.9011 10.1946
35.2970 11.3758
35.6929 14.1445
36.0888 20.0427
36.2867 25.3277
36.4846 33.6185
36.6826 47.4236
36.8805 72.4855
36.9795 93.2804
37.0785 124.357
37.1775 173.537
37.2764 257.612
37.3754 417.930
37.4249 558.111
37.4744 778.555
37.5239 1151.16
37.5733 1842.77
37.5981 2424.04
37.6228 3289.03
37.6476 4611.80
37.6723 6639.27
37.7062 10698.2
37.7400 13465.7
37.7739 10848.8
37.8077 6830.87
37.8370 4503.98
37.8663 3089.21
37.8956 2217.84
37.9249 1658.32
37.9836 1020.50
38.0422 689.725
38.1008 497.864
38.1594 377.129
38.2766 239.627
38.3939 167.200
38.5111 124.346
38.6284 96.8382
38.7456 78.0935
38.9801 54.8191
39.2145 41.3840
39.4490 32.8791
39.6835 27.1273
40.1524 20.0219
40.6213 15.9404
41.5592 11.7379
42.4971 10.1896
42.9660 10.2960
43.4350 11.4293
43.9039 14.9318
44.1384 18.8287
44.3728 26.1790
44.4901 32.3976
44.6073 41.7889
44.7245 56.7751
44.8418 82.5396
44.9004 102.853
44.9590 131.800
45.0176 174.831
45.0762 242.296
45.1349 355.620
45.1642 442.760
45.1935 563.590
45.2228 736.124
45.2521 989.700
45.2814 1371.22
45.3107 1945.09
45.3529 3147.66
45.3950 3982.02
45.4372 3226.27
45.4793 2043.69
45.5146 1372.42
45.5499 956.242
45.5853 695.719
45.6206 526.295
45.6912 330.567
45.7619 227.630
45.8325 167.306
45.9031 129.030
46.0444 85.0044
46.1857 61.5349
46.3269 47.4982
46.4682 38.3967
46.6095 32.1323
46.8920 24.2446
47.1746 19.5997
47.4571 16.5982
47.7397 14.5243
48.3047 11.8772
48.8698 10.2750
49.4349 9.20570
50.0000 8.44122
50.9250 7.56864
51.8500 6.97039
52.7750 6.54779
53.2375 6.43944
53.3531 6.46121
53.4688 6.56632
53.5266 6.70069
53.5844 6.97666
53.6422 7.61012
53.6711 8.23373
53.7000 9.24622
53.7350 11.0795
53.7700 12.2990
53.8050 11.0598
53.8400 9.20456
53.8801 7.88664
53.9202 7.20071
53.9604 6.82350
54.0005 6.59770
54.0807 6.35046
54.1609 6.22009
54.4819 5.99500
55.1238 5.78439
56.4075 5.49052
58.9750 5.06513
61.5425 4.75692
62.8263 4.64554
63.4681 4.62092
63.7891 4.64285
63.9495 4.70499
64.0298 4.80790
64.0699 4.92452
64.1100 5.14761
64.1800 5.67247
64.2500 5.16931
64.3007 4.92373
64.3513 4.82347
64.4526 4.76934
64.6553 4.82024
64.8579 4.97886
65.0606 5.30422
65.2632 6.02231
65.3645 6.72816
65.4658 7.96687
65.5672 10.4033
65.6178 12.5935
65.6685 16.1304
65.7191 22.3259
65.7698 34.4540
65.7951 45.2032
65.8205 62.0623
65.8458 89.6281
65.8711 135.300
65.8858 172.818
65.9006 215.962
65.9300 271.530
65.9595 220.358
65.9889 140.796
66.0133 96.1541
66.0376 68.3399
66.0620 50.8439
66.0863 39.4346
66.1350 26.2138
66.1837 19.2464
66.2324 15.1595
66.2812 12.5657
66.3786 9.58361
66.4760 7.99499
66.5734 7.04539
66.7682 6.00547
66.9631 5.46989
67.1579 5.15204
67.5475 4.79765
67.9372 4.60397
68.3268 4.47861
69.1062 4.31617
70.6648 4.11831
72.2234 3.98897
73.7820 3.94878
74.5613 4.02045
75.3407 4.26909
75.7303 4.54114
76.1200 5.01869
76.5096 5.89689
76.8993 7.64726
77.0941 9.19851
77.2889 11.6348
77.4838 15.7082
77.6786 23.1409
77.7760 29.3270
77.8734 38.5832
77.9708 53.2315
78.0683 78.2088
78.1170 97.7780
78.1657 125.522
78.2144 166.518
78.2631 230.304
78.3118 336.377
78.3605 528.241
78.3849 685.222
78.4092 912.830
78.4336 1249.78
78.4579 1747.77
78.4945 2827.38
78.5310 3574.75
78.5676 2893.88
78.6041 1831.14
78.6322 1267.88
78.6603 904.589
78.6884 669.405
78.7165 512.468
78.7728 326.448
78.8290 226.218
78.8852 166.602
78.9414 128.400
79.0539 84.0908
79.1663 60.3130
79.2787 46.0539
79.3912 36.8042
79.5036 30.4461
79.7285 22.4695
79.9533 17.8086
80.1782 14.8268
80.4031 12.7905
80.8528 10.2396
81.3026 8.73972
81.7523 7.76829
82.2021 7.09434
83.1015 6.22829
84.0010 5.70181
84.9005 5.36427
85.3503 5.27586
85.5751 5.33491
85.6876 5.54946
85.7438 5.87883
85.7719 6.19896
85.8000 6.71216
85.8700 8.29406
85.9400 6.68737
85.9742 6.07842
86.0084 5.73035
86.0768 5.39720
86.2135 5.17621
86.4870 5.05911
87.0340 5.01819
87.5810 5.10612
88.1280 5.42240
88.4015 5.75721
88.6750 6.32825
88.9485 7.34756
89.2220 9.31766
89.3588 11.0244
89.4955 13.6583
89.6323 17.9769
89.7690 25.6757
89.9058 41.1855
89.9741 55.4730
90.0425 79.1259
90.1109 122.074
90.1451 157.741
90.1793 210.949
90.2134 294.503
90.2476 433.793
90.2818 681.288
90.3160 1136.44
90.3490 1837.44
90.3820 2322.75
90.4150 1879.89
90.4480 1189.55
90.4853 699.994
90.5226 443.146
90.5599 302.089
90.5973 218.605
90.6346 165.728
90.6719 130.340
90.7465 87.5413
90.8211 63.6742
90.8958 49.0192
91.0450 32.6573
91.1943 24.1647
91.3435 19.1656
91.4928 15.9577
91.6420 13.7654
91.9405 11.0237
92.2390 9.41897
92.5375 8.38598
92.8360 7.67413
93.4330 6.76779
94.0300 6.22028
94.6270 5.85488
95.2240 5.59316
96.4180 5.24022
97.6120 5.00900
100.000 4.71303
102.146 4.53726
104.291 4.40343
108.583 4.19930
112.874 4.03590
117.165 3.88817
121.456 3.74130
125.748 3.58240
127.893 3.49442
130.039 3.40021
132.184 3.30868
133.257 3.28297
133.794 3.31106
134.062 3.42339
134.129 3.51084
134.196 3.68544
134.263 4.10095
134.297 4.53685
134.330 5.29598
134.365 6.51886
134.400 7.33434
134.435 6.52104
134.470 5.29970
134.510 4.43293
134.551 3.98847
134.631 3.60864
134.792 3.39847
135.114 3.33293
135.757 3.39740
136.401 3.60823
137.045 4.11092
137.366 4.59673
137.688 5.39981
138.010 6.80768
138.332 9.49814
138.493 11.8138
138.654 15.3700
138.815 21.1644
138.895 25.5059
138.975 31.4021
139.056 39.6818
139.136 51.7291
139.217 70.1682
139.297 100.126
139.378 153.150
139.418 195.941
139.458 258.076
139.498 352.389
139.539 501.569
139.579 748.748
139.619 1164.98
139.665 1886.81
139.710 2389.81
139.756 1941.92
139.801 1234.06
139.848 763.177
139.894 500.615
139.941 349.128
139.988 256.667
140.034 196.592
140.081 155.755
140.174 105.459
140.267 76.8774
140.361 59.1114
140.547 39.0508
140.734 28.5098
140.920 22.2586
141.107 18.2230
141.293 15.4527
141.666 11.9711
142.039 9.92525
142.413 8.60541
142.786 7.69611
143.532 6.54319
144.278 5.86588
144.651 5.64385
145.024 5.52431
145.211 5.55615
145.397 5.79785
145.490 6.15948
145.537 6.49579
145.584 7.04313
145.630 7.99945
145.677 9.82862
145.700 11.4049
145.723 13.8028
145.747 17.5654
145.770 23.4980
145.800 34.8187
145.830 42.6173
145.860 35.5004
145.890 24.3361
145.921 16.9243
145.951 12.7851
145.982 10.3939
146.013 8.92613
146.074 7.31515
146.135 6.50396
146.196 6.03520
146.258 5.73769
146.380 5.38635
146.625 5.05418
146.870 4.88326
147.360 4.68043
147.850 4.54327
149.810 4.18979
151.770 3.96462
152.750 3.90721
152.995 3.92196
153.240 3.99562
153.363 4.10120
153.485 4.35925
153.546 4.64206
153.608 5.19692
153.638 5.69150
153.669 6.46639
153.699 7.73623
153.730 9.84589
153.765 13.4867
153.800 15.9116
153.835 13.4830
153.870 9.83670
153.899 7.81890
153.928 6.56856
153.956 5.78080
153.985 5.26933
154.043 4.67623
154.100 4.36399
154.215 4.06244
154.330 3.92476
154.560 3.79956
154.789 3.73922
155.709 3.62409
157.547 3.48299
159.386 3.37374
161.224 3.31762
162.143 3.33752
163.063 3.43038
163.982 3.67590
164.901 4.27631
165.361 4.86534
165.820 5.84701
166.280 7.57934
166.740 10.9093
166.969 13.7889
167.199 18.2242
167.429 25.4794
167.659 38.3636
167.774 48.8258
167.889 64.1356
168.004 87.6736
168.118 126.268
168.233 195.280
168.291 251.745
168.348 334.529
168.406 461.924
168.463 667.577
168.521 1018.33
168.578 1627.85
168.639 2634.06
168.700 3332.93
168.761 2707.03
168.822 1719.61
168.864 1242.53
168.905 918.477
168.947 697.979
168.988 545.560
169.071 357.401
169.154 252.038
169.238 187.751
169.321 145.813
169.487 96.3378
169.653 69.3253
169.819 52.9550
169.985 42.2459
170.151 34.8446
170.484 25.4980
170.816 20.0010
171.148 16.4687
171.481 14.0501
172.145 11.0264
172.810 9.32576
173.142 8.84687
173.474 8.81252
173.641 9.26413
173.724 9.81215
173.807 10.8371
173.890 12.9002
173.931 14.7444
173.973 17.6558
174.015 22.5818
174.056 31.6043
174.098 49.9727
174.118 66.3259
174.139 90.6173
174.170 142.584
174.200 178.962
174.231 146.966
174.261 96.0580
174.291 62.8261
174.322 43.9588
174.352 32.9181
174.382 26.0788
174.443 18.5201
174.504 14.6850
174.564 12.4722
174.625 11.0716
174.746 9.44090
174.867 8.53757
174.988 7.96639
175.231 7.27279
175.716 6.55068
176.201 6.13281
176.685 5.84614
177.170 5.67259
177.413 5.67187
177.534 5.72836
177.655 5.87183
177.776 6.21469
177.837 6.55239
177.898 7.12816
177.958 8.19282
178.019 10.4150
178.049 12.5035
178.079 15.9692
178.110 22.0690
178.140 33.1264
178.170 50.4480
178.200 62.5467
178.230 51.9455
178.260 34.9910
178.293 22.9664
178.327 16.5369
178.360 12.9369
178.393 10.7858
178.426 9.40478
178.460 8.47379
178.526 7.32983
178.593 6.67803
178.659 6.26764
178.792 5.78932
178.925 5.52125
179.058 5.34786
179.324 5.12830
179.856 4.87585
180.388 4.70698
182.516 4.24624
184.644 3.89727
186.772 3.59050
188.899 3.33561
189.963 3.27484
191.027 3.36789
191.559 3.55447
192.091 3.94692
192.623 4.75581
193.155 6.49872
193.421 8.10830
193.687 10.6954
193.953 15.1027
194.219 23.2525
194.352 30.0782
194.485 40.3082
194.618 56.4700
194.751 83.8544
194.884 134.971
194.951 178.466
195.017 244.795
195.084 351.823
195.150 536.858
195.217 882.501
195.250 1164.97
195.283 1560.06
195.342 2548.16
195.400 3250.58
195.459 2649.11
195.517 1686.38
195.552 1268.22
195.587 970.272
195.657 606.476
195.727 410.664
195.797 296.452
195.867 224.580
195.937 176.740
196.077 118.976
196.218 86.7551
196.358 66.9090
196.638 44.6103
196.918 32.9085
197.198 25.9394
197.478 21.4145
197.759 18.2877
198.319 14.3140
198.879 11.9400
199.440 10.3837
200.000 9.29435
200.788 8.22829
201.577 7.49815
202.365 6.99577
203.154 6.70262
203.942 6.73917
204.336 7.03097
204.730 7.77155
204.927 8.48444
205.125 9.64197
205.322 11.6157
205.519 15.2461
205.716 22.7545
205.814 29.7912
205.913 41.5675
206.012 63.2382
206.061 81.4161
206.110 108.698
206.159 152.008
206.209 224.871
206.258 356.496
206.282 460.607
206.307 602.602
206.354 978.413
206.400 1243.50
206.447 1012.57
206.493 645.273
206.523 474.941
206.553 357.149
206.614 218.462
206.674 146.670
206.734 105.766
206.794 80.4981
206.854 63.8602
206.975 44.0272
207.095 33.0821
207.216 26.3951
207.456 18.9241
207.697 15.0154
207.938 12.6876
208.179 11.1712
208.420 10.1172
208.901 8.76281
209.383 7.93696
209.865 7.38145
210.346 6.98100
211.310 6.43643
212.273 6.07621
214.200 5.61088
216.126 5.30636
218.053 5.07926
221.906 4.73552
225.759 4.45080
227.686 4.31087
229.613 4.16463
231.539 4.01234
232.503 3.94338
233.466 3.90590
233.948 3.92087
234.429 3.98977
234.911 4.17368
235.392 4.62746
235.633 5.07471
235.874 5.82103
236.115 7.13729
236.356 9.65797
236.476 11.8268
236.597 15.1445
236.717 20.5188
236.837 29.9191
236.898 37.4332
236.958 48.2598
237.018 64.5604
237.078 90.5143
237.138 134.955
237.169 169.725
237.199 218.698
237.229 289.913
237.259 397.003
237.289 562.696
237.319 820.043
237.360 1333.37
237.400 1695.94
237.441 1383.57
237.481 882.899
237.510 631.757
237.539 463.900
237.567 351.075
237.596 273.982
237.654 179.743
237.711 127.531
237.768 95.7702
237.826 75.1369
237.941 50.7828
238.056 37.4820
238.171 29.3957
238.285 24.0909
238.400 20.4082
238.630 15.7298
238.860 12.9553
239.090 11.1559
239.320 9.91139
239.779 8.32585
240.239 7.37266
240.699 6.74203
241.158 6.29590
242.077 5.71551
242.537 5.53214
242.997 5.42642
243.456 5.47124
243.686 5.62915
243.916 6.01446
244.146 6.97310
244.261 7.97586
244.376 9.80345
244.491 13.5259
244.548 16.9565
244.605 22.5841
244.663 32.6481
244.720 52.7495
244.749 70.9684
244.778 99.9236
244.807 148.202
244.821 184.030
244.835 230.111
244.851 296.352
244.868 373.208
244.900 475.432
244.916 452.664
244.932 389.739
244.965 250.777
244.988 180.500
245.011 133.464
245.034 102.019
245.058 80.5625
245.104 54.2802
245.150 39.7283
245.197 30.8659
245.243 25.1036
245.336 18.2835
245.428 14.5425
245.521 12.2566
245.706 9.69497
245.892 8.34376
246.077 7.52942
246.448 6.61321
246.819 6.11608
247.190 5.80328
247.931 5.42471
248.673 5.19523
249.414 5.03433
250.897 4.80968
252.381 4.64680
253.864 4.51249
255.347 4.39206
256.089 4.33638
256.459 4.31666
256.645 4.32703
256.737 4.36738
256.784 4.42417
256.830 4.54961
256.900 4.81982
256.970 4.53859
257.003 4.43517
257.035 4.37407
257.101 4.31227
257.231 4.26558
257.492 4.22869
258.014 4.18101
259.058 4.09258
260.102 4.00296
261.146 3.91880
261.668 3.88784
262.190 3.87913
262.713 3.92358
263.235 4.10368
263.496 4.31023
263.757 4.68062
264.018 5.37157
264.279 6.75778
264.409 7.98492
264.540 9.90175
264.670 13.0718
264.801 18.7430
264.866 23.3636
264.931 30.1109
264.996 40.4681
265.062 57.3035
265.127 87.0481
265.160 110.949
265.192 145.476
265.225 197.520
265.257 278.888
265.290 411.621
265.323 630.965
265.361 1029.00
265.400 1312.85
265.439 1073.76
265.477 686.965
265.523 400.190
265.569 252.655
265.615 172.752
265.661 125.911
265.706 96.2879
265.752 76.4857
265.844 52.5412
265.935 39.1217
266.027 30.8421
266.210 21.5071
266.393 16.5868
266.576 13.6476
266.759 11.7341
266.942 10.4089
267.308 8.71949
267.674 7.70707
268.040 7.04208
268.407 6.57721
269.139 5.99055
269.505 5.81703
269.871 5.73001
270.237 5.80173
270.420 5.97283
270.603 6.36073
270.787 7.27480
270.878 8.19517
270.970 9.82061
271.061 13.0067
271.107 15.8354
271.153 20.3115
271.198 27.9389
271.244 42.1071
271.267 54.0256
271.290 71.7289
271.313 98.6954
271.336 139.617
271.368 224.703
271.400 285.199
271.432 233.849
271.464 151.045
271.485 113.097
271.505 86.5169
271.546 54.9517
271.587 38.3824
271.628 28.8900
271.669 22.9761
271.710 19.0727
271.792 14.3858
271.874 11.7824
271.956 10.1796
272.120 8.37216
272.283 7.41340
272.447 6.83321
272.775 6.17677
273.102 5.81736
273.430 5.58898
274.085 5.30874
274.740 5.13625
275.396 5.01442
276.706 4.84525
279.327 4.63453
281.947 4.49304
284.568 4.38143
287.189 4.28409
289.809 4.19442
290.465 4.17497
291.120 4.16284
291.447 4.16665
291.775 4.19672
291.939 4.24402
292.021 4.28989
292.102 4.36788
292.184 4.51293
292.225 4.63592
292.266 4.82224
292.307 5.12245
292.348 5.63873
292.389 6.60161
292.430 8.49183
292.465 11.1352
292.500 12.8902
292.535 11.1251
292.570 8.48712
292.598 7.07601
292.625 6.18138
292.653 5.61053
292.681 5.23399
292.736 4.79317
292.791 4.55852
292.846 4.41993
292.901 4.33136
293.012 4.22830
293.122 4.17184
293.232 4.13669
293.453 4.09476
293.895 4.05043
294.336 4.02136
295.219 3.97361
296.102 3.93098
296.544 3.91365
296.985 3.90394
297.427 3.91264
297.868 3.96876
298.089 4.03776
298.310 4.16453
298.530 4.40469
298.751 4.89091
298.862 5.32348
298.972 6.00086
299.082 7.12328
299.193 9.13179
299.303 13.1641
299.358 16.8352
299.413 22.8113
299.469 33.3477
299.496 41.8203
299.524 54.0541
299.551 72.4114
299.579 101.147
299.607 147.937
299.634 224.728
299.667 365.439
299.700 465.605
299.717 443.171
299.733 381.230
299.766 245.030
299.788 180.167
299.810 135.616
299.853 83.5164
299.897 56.7176
299.940 41.4981
299.984 32.0925
300.028 25.9178
300.115 18.5511
300.202 14.4761
300.289 11.9811
300.464 9.18231
300.638 7.71240
300.813 6.83388
300.987 6.26058
301.162 5.86205
301.511 5.35026
301.860 5.03938
302.209 4.83136
302.558 4.68220
303.256 4.48020
303.953 4.34593
305.349 4.16513
306.745 4.03307
307.443 3.97788
308.141 3.93725
308.490 3.93054
308.839 3.94521
309.188 4.00573
309.537 4.17470
309.711 4.34821
309.886 4.64304
310.060 5.16912
310.235 6.18213
310.409 8.38694
310.496 10.5385
310.584 14.2673
310.671 21.4444
310.715 27.7099
310.758 37.5019
310.802 53.8188
310.824 66.2457
310.845 83.3136
310.867 107.356
310.889 142.078
310.911 193.174
310.933 268.202
310.966 437.061
311.000 557.697
311.017 531.153
311.034 457.154
311.068 293.986
311.094 206.194
311.119 149.386
311.145 112.357
311.171 87.4978
311.223 57.8051
311.275 41.6479
311.327 31.9508
311.378 25.6841
311.482 18.3326
311.586 14.3277
311.689 11.8912
311.793 10.2892
311.896 9.17347
312.104 7.74830
312.311 6.89604
312.518 6.33851
312.725 5.94961
313.140 5.44828
313.554 5.14224
313.969 4.93685
314.383 4.78951
315.212 4.59109
316.041 4.46179
317.699 4.29763
319.357 4.19161
321.014 4.11405
321.843 4.08429
322.672 4.06725
323.087 4.07293
323.294 4.08571
323.501 4.11352
323.708 4.17525
323.812 4.23430
323.915 4.33425
324.019 4.52132
324.071 4.68221
324.123 4.93216
324.174 5.34952
324.226 6.11613
