Ba-138(n,tot) ENDF/B-VII.1
Energy(eV) XS(b)
1.00000E-05 24.3602
1.25000E-05 22.2175
1.50000E-05 20.6358
2.00000E-05 18.4156
2.75000E-05 16.3031
3.50000E-05 14.9128
4.25000E-05 13.9092
5.00000E-05 13.1408
6.25000E-05 12.1825
7.50000E-05 11.4752
0.000100000 10.4823
0.000125000 9.80471
0.000150000 9.30453
0.000200000 8.60245
0.000275000 7.93442
0.000350000 7.49477
0.000425000 7.17738
0.000500000 6.93440
0.000625000 6.63137
0.000750000 6.40769
0.00100000 6.09370
0.00125000 5.87943
0.00150000 5.72126
0.00200000 5.49923
0.00275000 5.28797
0.00350000 5.14893
0.00425000 5.04856
0.00500000 4.97171
0.00625000 4.87588
0.00750000 4.80513
0.0100000 4.70581
0.0125000 4.63803
0.0150000 4.58799
0.0200000 4.51774
0.0253000 4.46737
0.0314750 4.42558
0.0376500 4.39454
0.0500000 4.35071
0.0625000 4.32031
0.0750000 4.29785
0.100000 4.26628
0.125000 4.24468
0.150000 4.22870
0.200000 4.20616
0.275000 4.18455
0.350000 4.17017
0.500000 4.15150
0.750000 4.13329
1.00000 4.12184
1.50000 4.10705
2.00000 4.09706
2.75000 4.08599
3.50000 4.07727
5.00000 4.06317
7.50000 4.04414
10.0000 4.02768
15.0000 3.99851
20.0000 3.97228
27.5000 3.93655
35.0000 3.90410
50.0000 3.84676
75.0000 3.76795
100.000 3.70436
125.000 3.65184
150.000 3.60769
200.000 3.53753
275.000 3.46204
350.000 3.40834
425.000 3.36808
500.000 3.33671
536.993 3.32365
573.986 3.31186
592.483 3.30641
610.979 3.30129
629.476 3.29689
634.100 3.29630
638.724 3.29689
641.036 3.29881
643.348 3.30537
644.505 3.31503
645.083 3.32486
645.661 3.34296
646.239 3.38188
646.528 3.42068
646.817 3.49133
646.961 3.55071
647.106 3.64114
647.250 3.78868
647.395 4.05383
647.467 4.27407
647.539 4.60487
647.611 5.13640
647.684 6.06734
647.720 6.82350
647.756 7.93113
647.792 9.65073
647.828 12.5272
647.864 17.8882
647.882 22.4729
647.900 29.4910
647.918 41.0870
647.936 61.6634
647.955 102.449
647.964 137.491
647.973 188.605
647.986 300.245
648.000 373.962
648.014 299.388
648.028 188.613
648.038 129.371
648.049 92.0683
648.060 67.9894
648.071 52.2377
648.092 33.6913
648.114 23.8434
648.135 18.0588
648.157 14.3934
648.199 10.2100
648.242 8.00165
648.285 6.70140
648.328 5.87273
648.371 5.31380
648.457 4.62717
648.543 4.23910
648.629 3.99840
648.715 3.83893
648.887 3.64736
649.059 3.54118
649.231 3.47619
649.402 3.43359
649.746 3.38291
650.090 3.35506
650.777 3.32703
651.465 3.31385
652.152 3.30657
653.527 3.29913
656.277 3.29334
659.027 3.29087
664.526 3.28823
670.026 3.28645
692.024 3.28084
714.022 3.27584
736.021 3.27111
780.017 3.26232
824.014 3.25427
912.007 3.24002
1000.00 3.22774
1236.99 3.20160
1473.98 3.18206
1592.48 3.17391
1710.97 3.16658
1770.22 3.16320
1829.47 3.16002
1888.71 3.15742
1903.53 3.15723
1918.34 3.15815
1925.74 3.16012
1933.15 3.16650
1936.85 3.17578
1940.56 3.20261
1942.41 3.24024
1943.33 3.27799
1944.26 3.34712
1945.18 3.49551
1945.65 3.64349
1946.11 3.91238
1946.34 4.13959
1946.57 4.48451
1946.80 5.05090
1947.04 6.06717
1947.15 6.91649
1947.27 8.19878
1947.38 10.2668
1947.50 13.8783
1947.56 16.8407
1947.61 21.2182
1947.67 28.0733
1947.73 39.4177
1947.79 61.1064
1947.82 79.9387
1947.85 109.426
1947.87 159.045
1947.90 250.803
1947.92 330.891
1947.93 441.846
1947.95 608.536
1947.96 865.613
1947.98 1378.07
1948.00 1726.30
1948.02 1378.11
1948.04 863.516
1948.05 638.577
1948.07 472.081
1948.09 284.366
1948.12 184.199
1948.14 130.001
1948.17 95.5345
1948.19 73.9701
1948.24 48.4228
1948.29 34.2975
1948.34 25.8619
1948.45 16.7981
1948.55 12.2096
1948.65 9.61735
1948.75 7.98411
1948.85 6.90848
1949.05 5.60401
1949.26 4.87772
1949.46 4.43233
1949.66 4.14085
1950.07 3.79177
1950.47 3.59980
1950.88 3.48306
1951.29 3.40697
1952.10 3.31663
1952.91 3.26728
1954.53 3.21781
1956.15 3.19474
1957.78 3.18211
1961.02 3.16942
1967.52 3.16009
1974.01 3.15661
1986.99 3.15374
1993.48 3.15317
1996.73 3.15378
1998.35 3.15731
1999.16 3.17143
1999.57 3.22425
1999.77 3.40725
1999.82 3.57199
1999.87 3.95236
1999.90 4.38968
1999.92 5.24246
1999.95 7.28690
1999.96 9.57676
1999.97 13.5543
1999.99 19.6379
2000.00 23.9565
2000.01 19.6381
2000.03 13.5544
2000.04 10.0667
2000.05 8.01328
2000.07 5.76652
2000.11 4.24265
2000.15 3.73214
2000.19 3.51375
2000.36 3.25757
2000.69 3.18065
2001.35 3.15951
2002.67 3.15388
2005.31 3.15226
2010.59 3.15150
2021.15 3.15071
2042.27 3.14947
2084.51 3.14732
2169.00 3.14341
2253.48 3.13973
2337.97 3.13621
2506.94 3.12955
2675.91 3.12329
3013.86 3.11163
3351.80 3.10070
4027.69 3.07951
4365.64 3.06901
4450.12 3.06672
4534.61 3.06550
4576.85 3.06643
4597.97 3.06813
4619.09 3.07193
4640.22 3.08105
4650.78 3.09063
4661.34 3.10859
4666.62 3.12398
4671.90 3.14773
4677.18 3.18707
4682.46 3.25911
4685.10 3.31996
4687.74 3.41290
4690.38 3.56520
4693.02 3.84037
4694.34 4.06987
4695.66 4.41664
4696.98 4.97640
4698.30 5.96654
4698.96 6.77510
4699.62 7.97198
4700.28 9.85070
4700.94 13.0427
4701.60 19.1117
4701.93 24.4241
4702.26 32.8127
4702.59 47.1046
4702.92 74.0503
4703.08 97.0905
4703.25 132.020
4703.41 186.726
4703.58 272.931
4703.79 435.551
4704.00 543.390
4704.21 434.820
4704.42 273.086
4704.57 195.407
4704.71 143.534
4704.86 108.442
4705.00 84.5085
4705.29 55.2008
4705.58 39.0467
4705.87 29.2627
4706.15 22.9492
4706.73 15.6129
4707.31 11.6781
4707.89 9.33896
4708.46 7.83563
4709.04 6.81327
4710.20 5.55168
4711.35 4.83392
4712.50 4.38646
4713.66 4.08930
4715.97 3.73094
4718.28 3.53153
4720.59 3.40920
4722.90 3.32875
4727.51 3.23280
4732.13 3.17989
4736.75 3.14758
4741.37 3.12639
4750.61 3.10111
4759.84 3.08708
4769.08 3.07842
4778.32 3.07263
4796.79 3.06549
4815.26 3.06126
4852.21 3.05629
4889.16 3.05320
4926.11 3.05085
5000.00 3.04702
5359.11 3.03067
5538.67 3.02187
5718.22 3.01218
6077.33 2.98887
6436.44 2.95684
6616.00 2.93521
6795.55 2.90737
6975.11 2.86966
7154.66 2.81487
7244.44 2.77664
7334.22 2.72654
7423.99 2.65778
7513.77 2.55717
7558.66 2.48694
7603.55 2.39529
7648.44 2.27059
7693.33 2.09112
7715.77 1.96833
7738.21 1.81142
7760.66 1.60451
7783.10 1.32128
7794.33 1.13826
7805.55 0.918444
7816.77 0.655387
7827.99 0.353360
7833.60 0.201573
7839.21 0.0764901
7842.02 0.0401879
7844.83 0.0384305
7847.63 0.0945746
7849.03 0.155837
7850.44 0.248315
7851.84 0.381952
7853.24 0.570006
7854.65 0.830781
7856.05 1.18954
7857.45 1.68306
7858.85 2.36375
7860.26 3.30955
7861.66 4.63787
7863.06 6.53609
7864.46 9.30404
7865.87 13.4480
7867.27 19.8529
7868.67 30.1705
7870.08 47.5726
7871.48 78.3433
7872.88 133.962
7874.44 237.767
7876.00 327.984
7877.56 288.195
7879.12 197.029
7880.12 151.975
7881.11 119.312
7883.10 78.8539
7885.09 56.6561
7887.08 43.3781
7889.08 34.8184
7891.07 28.9606
7895.05 21.6259
7899.03 17.3218
7903.01 14.5418
7910.98 11.2215
7918.94 9.33902
7926.90 8.14094
7934.87 7.31669
7942.83 6.71746
7958.76 5.90770
7974.68 5.38814
7990.61 5.02750
8006.54 4.76295
8038.39 4.40139
8070.25 4.16618
8102.10 4.00106
8133.96 3.87877
8197.66 3.70976
8261.37 3.59840
8325.08 3.51940
8388.79 3.46036
8516.21 3.37781
8643.63 3.32259
8771.04 3.28282
8898.46 3.25265
9153.30 3.20946
9408.13 3.17952
9535.55 3.16759
9662.97 3.15711
9790.38 3.14798
9854.09 3.14496
9885.95 3.14893
9893.91 3.15497
9901.87 3.17352
9905.86 3.20011
9909.84 3.27608
9911.83 3.38095
9912.82 3.48468
9913.82 3.67130
9914.82 4.06005
9915.31 4.43487
9915.81 5.09021
9916.31 6.39963
9916.56 7.60590
9916.81 9.60673
9917.05 13.3113
9917.18 16.4691
9917.30 21.2570
9917.43 29.1087
9917.55 42.7974
9917.68 69.0729
9917.74 91.1988
9917.80 123.159
9917.90 195.109
9918.00 243.499
9918.10 195.342
9918.20 123.453
9918.28 84.5854
9918.36 59.9685
9918.44 44.3859
9918.52 34.1763
9918.68 22.3170
9918.84 16.0669
9919.00 12.4129
9919.16 10.1047
9919.48 7.47906
9919.80 6.09475
9920.12 5.28264
9920.76 4.41353
9921.40 3.98376
9922.03 3.74031
9923.31 3.48885
9924.59 3.36808
9925.87 3.30093
9928.43 3.23252
9933.54 3.18195
9938.65 3.16349
9948.88 3.14951
9959.10 3.14403
10000.0 3.13661
10062.7 3.13170
10125.3 3.12787
10250.6 3.12107
10375.9 3.11489
10501.2 3.10915
10751.9 3.09868
11002.5 3.08926
11503.7 3.07260
12004.9 3.05789
12506.2 3.04438
13007.4 3.03164
13508.6 3.01935
13759.2 3.01337
13884.5 3.01069
13947.2 3.01064
13978.5 3.01601
13986.4 3.02226
13994.2 3.04049
13998.1 3.06614
14002.0 3.13864
14004.0 3.23877
14005.0 3.33795
14005.9 3.51725
14006.9 3.89309
14007.4 4.25856
14007.9 4.90581
14008.4 6.21925
14008.6 7.48424
14008.9 9.55096
14009.1 13.6695
14009.2 17.1542
14009.4 22.6253
14009.5 31.8698
14009.6 49.0817
14009.7 63.6119
14009.7 85.3694
14009.8 118.923
14009.8 171.953
14009.9 272.700
14010.0 341.045
14010.1 272.801
14010.2 172.082
14010.2 119.047
14010.3 85.4824
14010.3 63.7134
14010.4 49.1728
14010.5 31.9443
14010.6 22.6878
14010.8 17.2078
14010.9 13.7163
14011.1 9.70339
14011.4 7.51485
14011.6 6.28511
14012.1 4.96238
14012.6 4.29436
14013.1 3.92431
14014.0 3.54045
14015.0 3.35429
14016.0 3.25113
14017.9 3.14704
14021.8 3.07062
14025.6 3.04333
14033.4 3.02333
14041.1 3.01610
14072.0 3.00840
14133.9 3.00509
14257.6 3.00163
14505.1 2.99558
15000.0 2.98368
15000.0 2.98918
15000.1 2.98917
15000.2 2.98917
15000.3 2.98917
15000.6 2.98916
15001.2 2.98915
15002.5 2.98912
15004.9 2.98906
15009.8 2.98894
15019.6 2.98871
15039.1 2.98823
15078.1 2.98729
15156.3 2.98540
15312.5 2.98161
15625.0 2.97397
16250.0 2.95836
17500.0 2.92522
20000.0 2.84608
20000.0 2.84268
20000.0 2.84268
20000.1 2.84268
20000.1 2.84267
20000.1 2.84267
20000.3 2.84267
20000.5 2.84266
20001.0 2.84264
20002.1 2.84260
20004.1 2.84253
20008.2 2.84238
20016.4 2.84208
20032.7 2.84148
20065.5 2.84027
20130.9 2.83785
20261.8 2.83294
20523.6 2.82285
21047.1 2.80146
22094.2 2.75293
22617.7 2.72511
23141.2 2.69442
23664.8 2.66131
23795.7 2.65362
23926.6 2.64874
23992.0 2.65049
24024.7 2.65470
24057.4 2.66452
24090.2 2.68845
24106.5 2.71357
24122.9 2.76033
24131.1 2.80007
24139.2 2.86089
24147.4 2.96047
24155.6 3.13973
24159.7 3.28849
24163.8 3.51204
24167.9 3.87006
24172.0 4.49594
24176.0 5.73985
24178.1 6.88487
24180.1 8.77722
24182.2 12.2701
24183.2 15.2044
24184.2 19.6616
24185.3 26.9401
24186.3 39.4965
24187.3 63.2678
24187.8 83.0197
24188.3 110.973
24189.2 176.487
24190.0 219.516
24190.9 175.709
24191.7 111.041
24192.5 71.0060
24193.3 48.1134
24194.1 34.5159
24194.9 26.0205
24196.5 16.5600
24198.0 11.8269
24199.6 9.12071
24201.2 7.45545
24204.4 5.58905
24207.5 4.62228
24210.7 4.06159
24213.9 3.70596
24217.0 3.46774
24223.4 3.17651
24229.7 3.01279
24236.0 2.91144
24242.4 2.84431
24255.0 2.76343
24267.7 2.71825
24293.0 2.67150
24318.3 2.64839
24343.7 2.63474
24394.3 2.61888
24495.7 2.60180
24597.0 2.58991
25002.2 2.54877
25407.5 2.50515
25812.8 2.45592
26623.3 2.33337
27433.9 2.16079
27839.1 2.04430
28244.4 1.89665
28649.7 1.70321
29054.9 1.43931
29257.6 1.26854
29460.2 1.06215
29662.8 0.811111
29865.5 0.509662
30068.1 0.179682
30118.8 0.105766
30169.4 0.0453139
30194.8 0.0232996
30220.1 0.00919277
30245.4 0.00549351
30270.7 0.0154485
30296.1 0.0433276
30321.4 0.0947594
30346.7 0.177242
30372.1 0.300857
30397.4 0.479306
30422.7 0.731424
30448.1 1.08344
30473.4 1.57212
30498.7 2.25082
30524.0 3.19634
30549.4 4.52216
30574.7 6.39766
30600.0 9.07764
30625.4 12.9440
30650.7 18.5530
30676.0 26.6427
30728.0 53.4976
30780.0 81.8867
30806.0 84.5651
30832.0 78.5105
30884.0 57.9205
30924.5 44.6007
30965.1 35.1843
31005.6 28.6382
31046.1 23.9981
31086.6 20.6144
31127.2 18.0872
31147.4 17.0712
31167.7 16.2267
31177.8 15.9099
31182.9 15.8099
31188.0 15.7941
31193.0 15.9679
31195.6 16.2143
31198.1 16.6957
31200.6 17.6887
31201.9 18.5833
31203.2 19.9918
31204.4 22.3954
31205.7 26.7943
31206.3 30.5172
31207.0 35.9244
31207.6 44.0706
31208.2 56.3410
31209.1 81.7390
31210.0 98.5445
31210.9 81.6395
31211.8 56.5513
31212.3 45.7010
31212.9 38.0231
31213.9 28.8199
31215.0 23.8756
31216.1 21.0346
31217.2 19.2393
31218.2 18.0549
31220.4 16.6160
31222.5 15.7941
31224.7 15.2734
31229.0 14.6425
31233.3 14.2602
31237.5 13.9878
31246.1 13.5891
31254.7 13.2783
31263.3 13.0101
31280.5 12.5408
31314.8 11.7498
31349.1 11.0843
31417.8 10.0093
31486.4 9.17639
31623.8 7.97290
31761.1 7.14924
32035.7 6.10121
32310.3 5.46575
32585.0 5.04039
32859.6 4.73583
33408.8 4.32809
33958.1 4.06626
34507.4 3.88241
35605.9 3.63709
36704.4 3.47594
37253.7 3.41320
37802.9 3.35925
38352.2 3.31433
38626.8 3.29672
38901.5 3.28501
39176.1 3.28550
39313.4 3.29542
39450.7 3.31880
39588.1 3.36948
39656.7 3.41483
39725.4 3.48515
39794.0 3.59972
39862.7 3.80068
39931.3 4.19506
39965.7 4.54963
40000.0 5.12428
40000.0 5.12352
40000.1 5.12525
40000.2 5.12698
40000.3 5.13023
40000.6 5.13699
40001.3 5.15060
40002.5 5.17803
40004.9 5.23459
40009.9 5.35506
40019.7 5.62980
40039.4 6.35793
40059.1 7.45649
40078.8 9.22000
40098.5 12.2951
40118.2 18.3017
40128.1 23.6297
40137.9 32.0078
40147.8 45.7715
40157.6 68.6965
40168.8 108.183
40180.0 134.555
40191.2 108.292
40202.4 68.8932
40211.5 47.3934
40220.5 33.9462
40229.6 25.4646
40238.7 19.9217
40256.8 13.4979
40275.0 10.1201
40293.1 8.14550
40311.2 6.89848
40347.5 5.47645
40383.8 4.72815
40420.1 4.28677
40456.3 4.00439
40492.6 3.81252
40565.1 3.57491
40637.7 3.43772
40710.2 3.35029
40782.8 3.29031
40927.9 3.21350
41073.0 3.16561
41218.1 3.13174
41363.2 3.10547
41653.4 3.06460
41943.5 3.03127
42523.9 2.97269
43104.3 2.91636
43684.7 2.85783
44845.4 2.72326
46006.2 2.54347
46586.6 2.42298
47167.0 2.26809
47747.3 2.05837
48327.7 1.75451
48617.9 1.54430
48908.1 1.27354
49053.2 1.10794
49198.3 0.917983
49270.8 0.813730
49343.4 0.705894
49379.7 0.654461
49415.9 0.616416
49434.1 0.617536
49452.2 0.676751
49461.3 0.784162
49465.8 0.896522
49470.3 1.10129
49474.9 1.52537
49477.1 1.92598
49479.4 2.60432
49481.7 3.89631
49482.8 5.01644
49483.9 6.77120
49485.1 9.75866
49486.2 15.2501
49486.8 19.9027
49487.3 26.6967
49487.9 37.2624
49488.5 53.1445
49489.2 84.9003
49490.0 106.184
49490.8 85.1689
49491.5 53.4810
49492.0 38.9896
49492.5 29.0149
49493.5 17.4738
49494.5 11.4992
49495.5 8.16366
49496.5 6.10182
49497.5 4.77055
49499.5 3.20017
49501.5 2.34384
49503.5 1.83103
49507.4 1.26813
49511.4 0.980781
49515.4 0.813559
49523.3 0.632061
49531.3 0.536537
49539.2 0.476796
49555.1 0.401662
49586.9 0.310517
49618.7 0.242628
49682.2 0.130397
49745.8 0.0453786
49777.6 0.0182040
49809.3 0.00657471
49841.1 0.0165879
49872.9 0.0567886
49904.7 0.139290
49936.4 0.281314
49968.2 0.507699
50000.0 0.854573
50000.0 0.859006
50000.0 0.859140
50000.0 0.859539
50000.1 0.859939
50000.1 0.860606
50000.2 0.861941
50000.4 0.864616
50000.8 0.869987
50001.6 0.880812
50003.2 0.902796
50006.4 0.948131
50012.8 1.04452
50025.6 1.26250
50051.2 1.81851
50076.9 2.58318
50102.5 3.63466
50128.1 5.08204
50153.7 7.07581
50179.3 9.81706
50204.9 13.5559
50238.7 20.4470
50272.5 29.7371
50340.0 48.7719
50373.8 51.9078
50407.6 49.5453
50475.1 38.3515
50518.4 31.7112
50561.7 26.5282
50648.4 19.6256
50735.0 15.5353
50821.6 12.9382
50908.2 11.1795
50994.8 9.92471
51168.1 8.27239
51341.3 7.24407
51514.6 6.54718
51861.1 5.66705
52207.5 5.13513
52554.0 4.77878
52727.3 4.64178
52813.9 4.58142
52900.5 4.52648
52987.1 4.47829
53073.8 4.44366
53117.1 4.44132
53138.7 4.45108
53160.4 4.47841
53182.0 4.54882
53192.9 4.62301
53203.7 4.75920
53209.1 4.87303
53214.5 5.04346
53219.9 5.31504
53225.3 5.78235
53230.8 6.68959
53233.5 7.49894
53236.2 8.79562
53238.9 11.0721
53241.6 15.5246
53242.9 19.5284
53244.3 25.8209
53245.6 36.2335
53247.0 53.7537
53248.5 83.5061
53250.0 103.164
53251.5 83.3176
53253.0 53.7842
53254.0 40.6722
53254.9 31.5167
53256.8 20.7018
53258.6 15.0604
53260.5 11.8409
53262.4 9.85628
53264.2 8.55520
53268.0 7.01752
53271.7 6.18000
53275.5 5.67750
53283.0 5.12884
53290.4 4.85082
53297.9 4.69046
53312.9 4.52006
53327.9 4.43408
53342.8 4.38309
53372.7 4.32445
53402.7 4.28967
53432.6 4.26468
53492.5 4.22704
53612.2 4.16960
53731.9 4.12115
53851.6 4.07753
53971.4 4.03760
54210.8 3.96766
54450.3 3.91341
54570.0 3.89618
54689.7 3.89282
54809.4 3.92173
54869.3 3.96480
54929.2 4.05291
54989.0 4.24674
55019.0 4.43428
55048.9 4.75641
55078.8 5.36938
55093.8 5.90245
55108.7 6.73443
55123.7 8.12674
55138.7 10.6697
55146.2 12.7761
55153.6 15.8625
55161.1 20.4969
55168.6 27.4547
55179.3 41.8497
55190.0 51.5501
55200.7 42.0980
55211.4 27.7769
55219.4 20.4192
55227.4 15.6415
55235.4 12.5252
55243.4 10.4342
55259.4 7.94234
55275.3 6.59587
55291.3 5.79347
55307.3 5.27944
55339.3 4.68277
55371.3 4.36198
55403.2 4.16856
55467.2 3.95348
55531.1 3.83902
55595.0 3.76778
55722.9 3.68066
55850.8 3.62472
55978.7 3.58175
56234.4 3.51172
56490.2 3.44941
56745.9 3.38824
57257.4 3.25522
57768.9 3.08151
58024.7 2.96142
58280.4 2.79747
58408.3 2.68825
58536.2 2.55019
58664.0 2.36864
58791.9 2.11756
58855.8 1.95181
58919.8 1.74664
58983.7 1.48718
59047.7 1.15245
59111.6 0.718781
59175.5 0.209663
59191.5 0.100709
59207.5 0.0301315
59223.5 0.0396452
59231.5 0.0975698
59239.5 0.211383
59247.5 0.405246
59255.5 0.713438
59263.5 1.18723
59271.4 1.90238
59279.4 2.97177
59287.4 4.56261
59295.4 6.91659
59303.4 10.3603
59312.6 16.1161
59321.7 24.0626
59340.0 41.1824
59349.2 44.6102
59358.3 43.2488
59376.6 34.3589
59396.1 25.7608
59415.6 20.0988
59435.1 16.4364
59454.5 13.9711
59474.0 12.2341
59493.5 10.9591
59532.5 9.23401
59571.4 8.13356
59610.4 7.37685
59688.3 6.41017
59766.2 5.82207
59844.2 5.42799
59922.1 5.14596
60000.0 4.93445
60000.0 4.93020
60000.1 4.93009
60000.1 4.92999
60000.2 4.92980
60000.3 4.92942
60000.7 4.92864
60001.3 4.92710
60002.6 4.92404
60005.2 4.91792
60010.4 4.90586
60020.9 4.88231
60041.7 4.83748
60083.4 4.75587
60166.8 4.61919
60333.6 4.42298
60417.0 4.35606
60458.7 4.33158
60500.4 4.31634
60542.1 4.31854
60563.0 4.33335
60583.8 4.36838
60604.7 4.44955
60615.1 4.52984
60625.5 4.67073
60636.0 4.95158
60641.2 5.21076
60646.4 5.64718
60651.6 6.47580
60654.2 7.20445
60656.8 8.36156
60659.4 10.3804
60662.0 14.3204
60663.3 17.8759
60664.6 23.4986
60665.9 32.9056
60667.2 48.9559
60668.6 74.6496
60670.0 90.8113
60671.4 72.1924
60672.8 45.9837
60673.8 32.9001
60674.8 24.5107
60675.8 19.0465
60676.8 15.3886
60678.8 11.0545
60680.9 8.73496
60682.9 7.37120
60684.9 6.50974
60688.9 5.53334
60693.0 5.02777
60697.0 4.73560
60705.1 4.43211
60713.2 4.28797
60721.3 4.20927
60737.4 4.13102
60769.7 4.07302
60802.1 4.04800
60866.7 4.01758
60931.4 3.99354
61060.6 3.95178
61189.9 3.91607
61448.5 3.86141
61707.1 3.83072
61965.7 3.83666
62095.0 3.86674
62224.3 3.93681
62288.9 4.00045
62353.5 4.09943
62418.2 4.26093
62482.8 4.54490
62547.5 5.10658
62579.8 5.61707
62612.1 6.45570
62644.4 7.97177
62660.6 9.23194
62676.8 11.1210
62692.9 14.1146
62709.1 19.1904
62725.2 28.4662
62741.4 46.2099
62755.7 71.3760
62770.0 87.7734
62784.3 70.4687
62798.6 45.1050
62810.3 31.2485
62822.0 22.6679
62833.7 17.2931
62845.4 13.8067
62868.8 9.79517
62892.2 7.70502
62915.5 6.49290
62938.9 5.73269
62985.7 4.87318
63032.5 4.42571
63079.3 4.16405
63126.0 3.99778
63172.8 3.88534
63266.3 3.74653
63359.9 3.66617
63453.4 3.61439
63547.0 3.57822
63734.1 3.53021
63921.2 3.49852
64295.3 3.45591
64669.5 3.42598
65043.7 3.40294
65792.1 3.37374
66540.4 3.37896
66914.6 3.41071
67288.8 3.48972
