Ba-136(n,g) ENDF/B-VII.1
Energy(eV) XS(b)
1.00000E-05 34.1868
1.25000E-05 30.5776
1.50000E-05 27.9134
2.00000E-05 24.1737
2.75000E-05 20.6154
3.50000E-05 18.2736
4.25000E-05 16.5830
5.00000E-05 15.2888
6.25000E-05 13.6747
7.50000E-05 12.4832
0.000100000 10.8108
0.000125000 9.66946
0.000150000 8.82696
0.000200000 7.64437
0.000275000 6.51913
0.000350000 5.77858
0.000425000 5.24397
0.000500000 4.83469
0.000625000 4.32427
0.000750000 3.94749
0.00100000 3.41861
0.00125000 3.05768
0.00150000 2.79126
0.00200000 2.41727
0.00275000 2.06143
0.00350000 1.82723
0.00425000 1.65816
0.00500000 1.52873
0.00625000 1.36730
0.00750000 1.24814
0.0100000 1.08086
0.0125000 0.966706
0.0150000 0.882433
0.0200000 0.764133
0.0253000 0.679325
0.0314750 0.608977
0.0376500 0.556734
0.0500000 0.482989
0.0625000 0.431890
0.0750000 0.394161
0.100000 0.341182
0.125000 0.305010
0.150000 0.278295
0.200000 0.240769
0.275000 0.205020
0.350000 0.181459
0.500000 0.151365
0.750000 0.122974
1.00000 0.105971
1.50000 0.0856728
2.00000 0.0734684
2.75000 0.0617428
3.50000 0.0539400
5.00000 0.0438537
7.50000 0.0341718
10.0000 0.0282791
15.0000 0.0211607
20.0000 0.0168706
27.5000 0.0128062
35.0000 0.0101885
50.0000 0.00701800
75.0000 0.00436972
100.000 0.00304215
125.000 0.00228218
150.000 0.00181100
200.000 0.00129922
261.914 0.00105235
323.828 0.00107354
354.785 0.00121848
385.741 0.00156236
401.220 0.00190138
416.698 0.00253238
424.438 0.00313459
432.177 0.00439202
436.046 0.00584108
437.981 0.00718526
439.916 0.00954723
441.851 0.0144631
442.818 0.0193025
443.786 0.0280870
444.753 0.0467786
445.237 0.0653316
445.720 0.0990381
445.962 0.127347
446.204 0.170419
446.446 0.240713
446.688 0.367005
446.809 0.471944
446.930 0.629733
447.051 0.883044
447.171 1.32774
447.232 1.68858
447.292 2.21917
447.353 3.04463
447.413 4.42644
447.474 7.00610
447.504 9.21367
447.534 12.6232
447.565 18.2752
447.595 28.4104
447.610 36.6662
447.625 48.6110
447.633 56.6203
447.640 66.2522
447.648 78.1250
447.655 92.2474
447.666 118.226
447.678 147.622
447.700 184.276
447.711 173.321
447.723 147.352
447.745 92.0329
447.771 53.1518
447.796 33.0790
447.822 22.1538
447.847 15.7386
447.873 11.6933
447.898 9.01636
447.949 5.80905
448.000 4.04095
448.051 2.97128
448.153 1.79755
448.255 1.20256
448.357 0.861038
448.460 0.646833
448.562 0.504008
448.766 0.331076
448.970 0.234539
449.174 0.175214
449.378 0.136181
449.786 0.0896429
450.195 0.0640429
451.011 0.0383323
451.828 0.0263646
452.644 0.0198765
454.277 0.0135219
455.910 0.0107221
457.543 0.00934642
460.809 0.00836456
467.341 0.00903951
473.873 0.0115831
480.404 0.0165077
486.936 0.0264386
490.202 0.0355195
493.468 0.0505270
496.734 0.0779946
498.367 0.101221
500.000 0.136818
501.224 0.177617
502.447 0.240050
503.671 0.342688
504.894 0.529270
505.506 0.686003
505.812 0.791971
506.118 0.924621
506.271 1.00387
506.424 1.09373
506.730 1.31398
506.883 1.45005
507.036 1.60832
507.188 1.79403
507.341 2.01392
507.494 2.27709
507.647 2.59526
507.800 2.98542
507.953 3.47033
508.106 4.08421
508.259 4.87598
508.412 5.92225
508.565 7.34473
508.718 9.34899
508.871 12.2956
509.024 16.8860
509.177 24.5899
509.253 30.5684
509.330 38.9909
509.406 51.3667
509.483 70.5088
509.559 102.273
509.635 159.618
509.674 206.723
509.712 275.075
509.750 376.660
509.788 527.413
509.844 843.874
509.900 1054.15
509.956 843.072
510.012 526.743
510.066 327.854
510.121 214.902
510.175 149.077
510.230 108.587
510.284 82.1948
510.339 64.2057
510.448 42.1242
510.557 29.6581
510.666 21.9820
510.883 13.4313
511.101 9.03745
511.319 6.49139
511.537 4.88546
511.755 3.80929
512.191 2.50099
512.626 1.76715
513.062 1.31488
513.498 1.01669
514.369 0.660648
515.241 0.464699
516.112 0.345949
516.983 0.269194
518.726 0.182546
520.469 0.149604
521.341 0.157215
521.776 0.174644
522.212 0.212936
522.648 0.301749
522.866 0.392042
523.083 0.556087
523.301 0.898712
523.410 1.22857
523.519 1.80532
523.628 2.95246
523.683 4.00498
523.737 5.74836
523.791 8.95172
523.819 11.6467
523.846 15.7375
523.873 22.3587
523.900 33.8109
523.914 42.8147
523.928 55.4234
523.941 73.3261
523.955 98.5953
523.966 126.347
523.977 157.754
524.000 196.920
524.011 185.215
524.023 157.469
524.045 98.5856
524.060 71.7747
524.074 53.3792
524.103 31.8135
524.133 20.7001
524.162 14.4468
524.191 10.6071
524.220 8.11218
524.278 5.17422
524.336 3.58683
524.394 2.63584
524.510 1.60383
524.626 1.08614
524.743 0.790240
524.859 0.605334
524.975 0.482039
525.207 0.332733
525.440 0.248909
525.905 0.162321
526.369 0.120070
526.834 0.0957921
527.764 0.0694001
529.623 0.0463196
531.482 0.0352392
535.201 0.0236378
538.919 0.0173657
546.356 0.0107191
553.793 0.00734886
561.229 0.00538607
568.666 0.00413931
583.540 0.00270157
598.413 0.00193461
613.287 0.00147748
643.034 0.000982327
672.781 0.000733568
702.528 0.000590854
762.023 0.000441430
881.011 0.000329433
1000.00 0.000294088
1159.41 0.000293037
1318.81 0.000347312
1398.51 0.000428785
1438.36 0.000509174
1478.21 0.000654453
1518.07 0.000963067
1557.92 0.00183383
1577.84 0.00304608
1587.81 0.00426237
1597.77 0.00649668
1607.73 0.0113098
1612.71 0.0161347
1617.69 0.0249795
1620.18 0.0324706
1622.68 0.0439642
1625.17 0.0629141
1627.66 0.0974756
1628.90 0.126625
1630.15 0.171100
1631.39 0.243939
1632.64 0.375572
1633.26 0.485540
1633.88 0.651927
1634.51 0.921067
1635.13 1.39769
1635.44 1.78944
1635.75 2.36943
1636.06 3.28347
1636.37 4.84562
1636.69 7.85746
1636.84 10.5264
1637.00 14.7607
1637.15 22.1439
1637.31 36.3322
1637.39 48.8716
1637.46 68.4310
1637.54 100.219
1637.62 151.686
1637.71 242.966
1637.80 303.927
1637.89 242.964
1637.98 151.690
1638.07 94.2387
1638.16 61.9673
1638.25 42.9250
1638.34 31.3214
1638.43 23.6825
1638.51 18.5323
1638.69 12.1604
1638.87 8.56535
1639.04 6.34906
1639.40 3.88493
1639.75 2.61444
1640.10 1.87955
1640.46 1.41465
1640.81 1.10372
1641.52 0.725046
1642.23 0.512434
1642.93 0.381302
1643.64 0.294778
1645.05 0.191258
1646.47 0.134131
1647.88 0.0992875
1649.30 0.0764815
1652.13 0.0494237
1654.95 0.0346048
1657.78 0.0256156
1660.61 0.0197551
1666.27 0.0128307
1671.92 0.00905282
1683.24 0.00528146
1694.55 0.00353115
1705.86 0.00258058
1728.49 0.00164095
1751.11 0.00121574
1773.74 0.000996122
1818.99 0.000813293
1864.24 0.000787440
1909.50 0.000861306
1954.75 0.00105570
2000.00 0.00149076
2034.68 0.00225293
2052.02 0.00299633
2069.36 0.00433194
2078.04 0.00544827
2086.71 0.00714734
2095.38 0.00993148
2104.05 0.0149917
2108.38 0.0192538
2112.72 0.0257672
2117.05 0.0364660
2121.39 0.0559128
2123.56 0.0722559
2125.72 0.0971512
2127.89 0.137810
2128.98 0.168574
2130.06 0.210975
2131.14 0.271845
2131.68 0.312723
2132.23 0.363604
2132.77 0.428038
2133.31 0.511295
2133.85 0.621478
2134.39 0.771233
2134.94 0.982880
2135.48 1.29512
2136.02 1.78306
2136.56 2.60695
2136.83 3.24933
2137.10 4.15882
2137.37 5.50390
2137.65 7.60632
2137.92 11.1361
2138.19 17.6430
2138.32 23.1035
2138.46 31.1359
2138.59 43.3364
2138.73 61.8898
2138.91 98.9373
2139.10 123.592
2139.29 98.7041
2139.47 61.7036
2139.63 41.0646
2139.78 28.3288
2139.94 20.3873
2140.09 15.2431
2140.40 9.33555
2140.71 6.25623
2141.02 4.46886
2141.33 3.34554
2141.95 2.07281
2142.57 1.40651
2143.19 1.01604
2143.81 0.768013
2144.43 0.601034
2145.67 0.396600
2146.91 0.281328
2148.15 0.209980
2149.39 0.162787
2151.87 0.106211
2154.35 0.0749226
2156.82 0.0558227
2159.30 0.0433324
2164.26 0.0285442
2169.22 0.0204936
2174.17 0.0156639
2179.13 0.0125715
2189.05 0.00908309
2198.96 0.00742536
2218.79 0.00670237
2228.70 0.00728090
2238.62 0.00862381
2248.53 0.0111975
2258.45 0.0162022
2263.40 0.0205141
2268.36 0.0271534
2273.32 0.0380861
2278.27 0.0579109
2280.75 0.0744896
2281.99 0.0856530
2283.23 0.0995814
2284.47 0.117283
2285.71 0.140212
2286.33 0.154324
2286.95 0.170670
2287.57 0.189812
2288.19 0.212347
2288.81 0.239218
2289.43 0.271557
2290.05 0.310949
2290.67 0.359514
2291.29 0.420541
2291.91 0.498396
2292.53 0.600218
2293.15 0.736407
2293.77 0.924928
2294.39 1.19572
2295.01 1.60396
2295.62 2.25782
2296.24 3.39985
2296.55 4.31424
2296.86 5.62903
2297.17 7.61240
2297.48 10.7383
2297.79 15.8898
2298.10 24.4780
2298.45 39.1568
2298.80 48.9335
2299.15 39.1417
2299.50 24.4635
2299.76 17.0130
2300.01 12.1710
2300.27 8.99186
2300.53 6.86338
2301.04 4.31980
2301.56 2.94722
2302.07 2.12971
2302.59 1.60764
2303.62 1.00678
2304.65 0.687937
2305.68 0.499483
2306.71 0.378860
2307.73 0.297224
2309.79 0.196901
2311.85 0.140007
2313.91 0.104676
2315.97 0.0812485
2320.09 0.0530924
2324.21 0.0374624
2328.32 0.0278955
2332.44 0.0216163
2340.68 0.0141446
2348.91 0.0100342
2357.15 0.00753143
2365.39 0.00589357
2381.86 0.00394781
2398.33 0.00287731
2414.80 0.00222467
2431.27 0.00179718
2464.22 0.00129008
2497.16 0.00101470
2563.05 0.000756179
2628.93 0.000683451
2694.82 0.000779215
2727.77 0.000983148
2760.71 0.00160372
2777.18 0.00248341
2793.65 0.00500015
2801.89 0.00851741
2810.12 0.0185256
2814.24 0.0324561
2816.30 0.0463911
2818.36 0.0718850
2820.42 0.126410
2821.45 0.180672
2822.48 0.279203
2822.99 0.361995
2823.51 0.487969
2824.02 0.693325
2824.54 1.06097
2824.80 1.36680
2825.05 1.82439
2825.31 2.55655
2825.57 3.83557
2825.82 6.39069
2825.95 8.74187
2826.08 12.6191
2826.21 19.8068
2826.27 25.8373
2826.34 35.0063
2826.40 50.1101
2826.47 76.1155
2826.53 125.526
2826.56 166.715
2826.60 225.138
2826.65 361.112
2826.70 449.286
2826.75 358.374
2826.81 225.136
2826.84 160.727
2826.88 117.334
2826.91 88.1483
2826.95 68.5524
2827.02 43.8469
2827.09 30.3472
2827.16 22.0706
2827.23 16.7970
2827.38 10.6313
2827.52 7.29825
2827.66 5.31378
2827.81 4.03922
2827.95 3.17799
2828.23 2.10813
2828.52 1.50122
2828.80 1.12196
2829.09 0.870868
2829.66 0.567890
2830.23 0.399403
2830.80 0.296168
2831.37 0.228475
2832.51 0.147759
2833.66 0.103428
2835.94 0.0588590
2838.22 0.0380233
2840.51 0.0266426
2845.07 0.0152648
2854.20 0.00708694
2863.34 0.00421145
2881.60 0.00215398
2899.87 0.00143690
2936.40 0.000938614
2972.93 0.000785683
3046.00 0.000747974
3119.06 0.000870949
3192.13 0.00118337
3228.66 0.00147740
3265.19 0.00196200
3301.72 0.00283616
3319.99 0.00356250
3338.25 0.00465612
3356.52 0.00641499
3374.79 0.00952097
3379.35 0.0106763
3383.92 0.0120694
3388.49 0.0137772
3393.05 0.0159170
3395.34 0.0172095
3397.62 0.0187040
3399.90 0.0204769
3402.18 0.0226813
3404.47 0.0257106
3406.75 0.0310352
3409.03 0.0498133
3410.18 0.110932
3410.46 0.168169
3410.75 0.313230
3410.89 0.489419
3411.03 0.890545
3411.10 1.32403
3411.17 2.15172
3411.25 4.00343
3411.28 5.85853
3411.32 8.87541
3411.36 14.1366
3411.40 17.7098
3411.44 14.1368
3411.48 8.86524
3411.52 5.60371
3411.56 3.73857
3411.64 1.93816
3411.72 1.16375
3411.80 0.779598
3411.95 0.423967
3412.11 0.272853
3412.42 0.149049
3412.74 0.101488
3413.99 0.0531990
3415.25 0.0453934
3416.50 0.0442107
3421.51 0.0531225
3424.02 0.0612622
3426.53 0.0719117
3429.04 0.0858832
3431.54 0.104539
3434.05 0.130126
3436.56 0.166407
3439.06 0.220149
3441.57 0.304289
3444.08 0.445934
3445.33 0.555347
3446.59 0.707848
3447.84 0.927539
3449.09 1.25398
3450.35 1.75322
3451.60 2.51702
3453.30 4.02313
3455.00 5.02354
3456.70 4.01800
3458.40 2.51207
3459.75 1.70342
3461.10 1.19253
3462.44 0.867620
3463.79 0.653970
3466.49 0.404907
3469.18 0.273255
3471.88 0.196105
3474.58 0.147320
3479.97 0.0916739
3485.36 0.0624445
3490.75 0.0452646
3496.14 0.0343339
3501.53 0.0269636
3512.31 0.0179946
3523.10 0.0131082
3533.88 0.0111571
3536.58 0.0118101
3539.27 0.0148308
3541.97 0.0333109
3542.64 0.0525452
3543.31 0.106527
3543.65 0.180106
3543.99 0.381417
3544.16 0.648994
3544.33 1.34517
3544.41 2.21370
3544.45 3.00190
3544.49 4.29558
3544.54 6.62944
3544.56 8.56346
3544.58 11.4515
3544.60 16.0008
3544.62 23.6425
3544.64 37.4129
3544.66 64.1352
3544.68 103.146
3544.70 128.267
3544.72 103.146
3544.74 64.1354
3544.75 47.7459
3544.76 35.6997
3544.79 21.4199
3544.81 14.0041
3544.83 9.92362
3544.86 7.28248
3544.88 5.61822
3544.93 3.59359
3544.97 2.49059
3545.02 1.82622
3545.12 1.10182
3545.30 0.528081
3545.49 0.310458
3545.87 0.146472
3546.24 0.0869056
3547.00 0.0431137
3547.75 0.0274267
3550.76 0.0117383
3553.77 0.00849347
3556.78 0.00714079
3568.82 0.00504980
3592.91 0.00338946
3616.99 0.00251412
3641.08 0.00197140
3689.24 0.00135690
3737.41 0.00103745
3833.75 0.000742770
3930.09 0.000634345
4026.42 0.000614649
4122.76 0.000683093
4170.93 0.000791065
4219.10 0.00107897
4243.18 0.00146017
4255.22 0.00183404
4267.26 0.00251166
4279.31 0.00395501
4285.33 0.00539239
4291.35 0.00801692
4294.36 0.0102334
4297.37 0.0136254
4300.38 0.0192060
4303.39 0.0293551
4304.90 0.0378909
4306.40 0.0508849
4307.91 0.0720982
4309.41 0.110264
4310.92 0.189817
4311.67 0.266705
4312.05 0.323925
4312.42 0.401761
4312.80 0.511766
4313.17 0.673376
4313.36 0.784421
4313.55 0.925253
4313.74 1.10748
4313.93 1.34893
4314.12 1.68008
4314.30 2.14524
4314.49 2.83016
4314.68 3.89433
4314.87 5.66578
4314.96 7.01963
4315.06 8.88997
4315.15 11.5494
4315.24 15.4431
4315.34 21.2793
4315.43 30.0252
4315.57 48.1481
4315.70 60.1245
4315.84 48.0012
4315.97 30.0217
4316.06 21.2009
4316.16 15.3906
4316.25 11.5136
4316.35 8.86485
4316.53 5.65221
4316.72 3.88618
4316.91 2.82041
4317.10 2.13860
4317.48 1.34687
4317.85 0.923096
4318.23 0.671931
4318.61 0.510381
4318.98 0.400978
4319.73 0.266074
4320.49 0.189386
4321.24 0.141686
4321.99 0.110055
4323.50 0.0719393
4325.00 0.0507741
4326.51 0.0378050
4328.01 0.0292988
4331.03 0.0191798
4334.04 0.0136238
4337.05 0.0102504
4340.06 0.00805105
4346.08 0.00545567
4352.10 0.00404446
4364.15 0.00264984
4376.19 0.00201982
4388.23 0.00169455
4412.32 0.00141862
4460.50 0.00140657
4508.67 0.00176319
4556.85 0.00267823
4580.94 0.00362215
4605.03 0.00536632
4617.07 0.00684870
4629.11 0.00912859
4641.16 0.0128981
4653.20 0.0198034
4659.22 0.0256450
4665.25 0.0345987
4671.27 0.0493408
4677.29 0.0761903
4680.30 0.0987746
4683.31 0.133197
4686.32 0.189440
4689.33 0.290735
4690.84 0.375020
4692.35 0.501983
4693.85 0.706439
4695.36 1.06635
4696.11 1.35928
4696.86 1.79133
4697.62 2.46623
4698.37 3.60312
4699.12 5.74422
4699.50 7.60074
4699.87 10.4911
4700.25 15.3483
4700.63 24.2537
4700.81 31.6688
4701.00 42.6236
4701.19 59.2284
4701.38 84.4264
4701.64 135.158
4701.90 168.997
4702.16 135.136
4702.42 84.4128
4702.66 53.9057
4702.90 36.0785
4703.14 25.3663
4703.38 18.6678
4703.86 11.1861
4704.34 7.40228
4704.82 5.23978
4705.30 3.89756
4706.25 2.39396
4707.21 1.61592
4708.17 1.16349
4709.12 0.877360
4710.08 0.685072
4712.00 0.450735
4713.91 0.318938
4715.83 0.237555
4717.74 0.183834
4721.57 0.119500
4725.40 0.0839464
4729.23 0.0622484
4733.06 0.0480413
4740.72 0.0311828
4748.37 0.0219459
4756.03 0.0163432
4763.69 0.0126931
4779.01 0.00838747
4794.33 0.00604871
4809.64 0.00464810
4824.96 0.00375585
4855.59 0.00279175
4886.23 0.00255788
4916.86 0.00411683
4924.52 0.00602584
4932.18 0.0115796
4936.01 0.0193610
4939.84 0.0414104
4941.75 0.0719006
4943.67 0.157169
4944.62 0.273496
4945.10 0.387731
4945.58 0.591810
4946.06 1.01433
4946.30 1.41810
4946.54 2.12073
4946.78 3.51638
4946.90 4.79241
4947.02 6.88047
4947.14 10.7121
4947.20 13.9218
4947.26 18.6659
4947.32 26.3401
4947.38 39.4656
4947.44 63.7167
4947.50 109.863
4947.55 176.289
4947.60 219.667
4947.65 176.288
4947.70 109.863
4947.76 68.3352
4947.81 44.8377
4947.86 31.1273
4947.91 22.6737
4947.96 17.1715
4948.01 13.4189
4948.11 8.80640
4948.22 6.18404
4948.32 4.58628
4948.52 2.80491
4948.73 1.88573
4948.93 1.35568
4949.34 0.796784
4949.75 0.523372
4950.16 0.370283
4950.97 0.213360
4951.79 0.138787
4952.61 0.0976072
4954.24 0.0560630
4957.51 0.0258913
4960.78 0.0151916
4967.32 0.00746564
4973.85 0.00472627
5000.00 0.00200403
5069.99 0.00113675
5139.98 0.000978478
5279.96 0.000932367
5419.94 0.00101624
5559.93 0.00120501
5699.91 0.00157148
5769.90 0.00189724
5839.89 0.00244199
5909.88 0.00351219
5944.87 0.00452122
5962.37 0.00527021
5971.12 0.00573916
5979.87 0.00629157
5988.62 0.00694931
5997.37 0.00774165
6006.12 0.00870894
6014.87 0.00990790
6023.61 0.0114203
6032.36 0.0133677
6041.11 0.0159365
6049.86 0.0194250
6058.61 0.0243358
6067.36 0.0315657
6076.11 0.0428474
6084.86 0.0618801
6089.23 0.0767258
6093.60 0.0977539
6097.98 0.128904
6102.35 0.177701
6106.73 0.259984
6111.10 0.412698
6113.29 0.541256
6115.48 0.733233
6117.66 1.02820
6119.85 1.48278
6122.78 2.36959
6125.70 2.95944
6128.63 2.36751
6131.55 1.48171
6133.68 1.03862
6135.80 0.748083
6137.93 0.557349
6140.05 0.429021
6144.30 0.277049
6148.55 0.198416
6152.80 0.160028
6157.05 0.161056
6159.18 0.194803
6160.24 0.234820
6161.30 0.311747
6162.37 0.479088
6162.90 0.644334
6163.43 0.939668
6163.70 1.18325
6163.96 1.54641
6164.23 2.12165
6164.49 3.10627
6164.76 5.01838
6164.89 6.72476
6165.02 9.44816
6165.16 14.2522
6165.29 23.7296
6165.36 32.3080
6165.42 45.7470
6165.49 68.0796
6165.55 106.161
6165.63 169.607
6165.70 212.202
6165.77 169.604
6165.85 106.087
6165.90 71.6815
6165.96 50.1389
6166.02 36.4639
6166.08 27.4833
6166.19 17.0261
6166.31 11.5023
6166.43 8.24660
6166.54 6.20947
6166.78 3.88408
6167.01 2.65774
6167.24 1.93974
6167.47 1.48202
6167.70 1.17253
6168.17 0.792349
6168.63 0.577018
6169.56 0.354464
6170.49 0.246955
6171.42 0.186645
6173.28 0.123975
6175.14 0.0929935
6177.00 0.0748912
6180.72 0.0547239
6188.15 0.0363956
6195.59 0.0274000
6210.46 0.0181257
6225.33 0.0133543
6255.07 0.00866016
6284.81 0.00650943
6344.29 0.00476229
6403.77 0.00425666
6463.26 0.00425949
6522.74 0.00458558
6552.48 0.00487858
6582.22 0.00534160
6597.09 0.00574744
6611.96 0.00660272
6626.83 0.0103824
6634.27 0.0245666
6636.13 0.0389660
6637.99 0.0792353
6638.92 0.134186
6639.84 0.284762
6640.31 0.485046
6640.77 1.01115
6641.01 1.67764
6641.12 2.28595
6641.24 3.29374
6641.35 5.13749
6641.41 6.68752
6641.47 9.03560
6641.53 12.8076
6641.59 19.3213
6641.64 31.5346
6641.70 55.7170
6641.75 89.1450
6641.80 111.431
6641.85 89.1452
6641.90 55.7174
6641.95 33.9688
6642.00 22.1095
6642.05 15.2669
6642.10 11.0803
6642.14 8.37001
6642.19 6.52883
6642.29 4.27464
6642.39 3.00741
6642.49 2.22802
6642.68 1.36169
6642.88 0.917535
6643.08 0.660316
6643.47 0.389664
6644.25 0.183610
6645.04 0.108012
6646.61 0.0522636
6648.17 0.0322893
6654.45 0.0127448
6667.00 0.00796389
6679.55 0.00727067
6692.10 0.00720291
6704.65 0.00733149
6717.20 0.00755148
6742.30 0.00814871
6767.40 0.00890539
6792.50 0.00981947
6817.60 0.0109142
6842.70 0.0122282
6867.80 0.0138169
6892.90 0.0157571
6918.01 0.0181565
6943.11 0.0211694
6968.21 0.0250279
6993.31 0.0301180
7018.41 0.0374816
7030.96 0.0447836
7034.10 0.0492021
7037.23 0.0596588
7038.80 0.0730695
7040.37 0.109448
7041.16 0.158428
7041.94 0.291422
7042.33 0.466634
7042.72 0.923044
7042.92 1.49078
7043.12 2.84600
7043.21 4.35753
7043.31 7.45921
7043.36 10.3628
7043.41 15.1977
7043.46 23.7973
7043.51 39.7942
7043.55 63.8500
7043.60 79.5730
7043.65 63.8502
7043.69 39.7946
7043.72 28.5437
7043.76 20.7879
7043.79 15.5904
7043.82 12.0290
7043.88 7.69775
7043.95 5.33959
7044.08 2.96139
7044.20 1.88645
7044.46 0.964858
7044.71 0.594345
7045.22 0.304821
7045.73 0.196263
7046.75 0.115419
7047.77 0.0864207
