Ba-134(n,tot) ENDF/B-VII.1
Energy(eV) XS(b)
1.00000E-05 80.8370
1.25000E-05 72.8522
1.50000E-05 66.9581
2.00000E-05 58.6846
2.75000E-05 50.8124
3.50000E-05 45.6315
4.25000E-05 41.8914
5.00000E-05 39.0281
6.25000E-05 35.4572
7.50000E-05 32.8212
0.000100000 29.1212
0.000125000 26.5962
0.000150000 24.7323
0.000200000 22.1160
0.000275000 19.6266
0.000350000 17.9883
0.000425000 16.8055
0.000500000 15.9001
0.000625000 14.7709
0.000750000 13.9373
0.00100000 12.7672
0.00125000 11.9688
0.00150000 11.3793
0.00200000 10.5520
0.00275000 9.76475
0.00350000 9.24665
0.00425000 8.87263
0.00500000 8.58628
0.00625000 8.22917
0.00750000 7.96556
0.0100000 7.59551
0.0125000 7.34297
0.0150000 7.15654
0.0200000 6.89482
0.0253000 6.70718
0.0314750 6.55153
0.0376500 6.43592
0.0500000 6.27269
0.0625000 6.15955
0.0750000 6.07597
0.100000 5.95852
0.125000 5.87823
0.150000 5.81884
0.200000 5.73522
0.275000 5.65515
0.350000 5.60200
0.500000 5.53328
0.750000 5.46673
1.00000 5.42525
1.50000 5.37239
2.00000 5.33726
2.75000 5.29891
3.50000 5.26907
5.00000 5.22125
7.50000 5.15667
10.0000 5.09988
15.0000 4.99505
20.0000 4.89425
27.5000 4.74280
35.0000 4.58512
50.0000 4.22479
62.5000 3.82821
68.7500 3.56501
75.0000 3.22540
81.2500 2.76137
84.3750 2.45993
87.5000 2.10099
90.6250 1.70423
92.1875 1.53305
93.7500 1.46711
94.5313 1.53211
94.9219 1.61005
95.3125 1.73229
95.5078 1.81467
95.7031 1.91440
95.8984 2.03443
96.0938 2.17828
96.2891 2.35022
96.4844 2.55534
96.6797 2.79988
96.8750 3.09145
97.0703 3.43944
97.2656 3.85544
97.6563 4.95341
98.0469 6.55488
98.4375 8.94162
98.8281 12.6068
99.2188 18.4687
99.6094 28.3829
99.8047 35.9945
100.000 46.5238
100.211 63.0101
100.422 88.3490
100.633 129.707
100.844 202.952
100.949 262.391
101.054 349.187
101.160 482.585
101.265 700.759
101.371 1090.46
101.424 1408.08
101.476 1873.62
101.529 2586.87
101.582 3736.26
101.634 5683.66
101.687 9052.99
101.744 14643.5
101.800 18515.9
101.857 14984.8
101.914 9467.72
101.962 6338.97
102.010 4405.20
102.058 3197.11
102.106 2412.45
102.201 1506.83
102.297 1030.78
102.393 751.874
102.489 574.880
102.680 371.356
102.872 262.786
103.064 197.867
103.255 155.805
103.447 126.903
103.830 90.5875
104.213 69.3206
104.596 55.6738
104.979 46.3311
105.746 34.5880
106.512 27.6609
107.278 23.1696
108.044 20.0564
109.577 16.0724
111.110 13.6624
112.642 12.0625
114.175 10.9289
117.240 9.43625
120.305 8.50057
123.370 7.85950
126.436 7.39219
132.566 6.75367
138.696 6.33408
144.827 6.03387
150.957 5.80594
163.218 5.47680
175.479 5.24446
200.000 4.92409
231.890 4.64595
263.781 4.44318
295.671 4.28179
311.616 4.21184
315.602 4.19568
319.589 4.18103
321.582 4.17548
322.579 4.17405
323.575 4.17482
324.572 4.18110
325.070 4.18937
325.568 4.20610
325.817 4.22089
326.066 4.24397
326.316 4.28239
326.565 4.35252
326.689 4.41135
326.814 4.50049
326.939 4.64471
327.063 4.90007
327.125 5.10903
327.188 5.41872
327.250 5.90554
327.312 6.73258
327.374 8.31148
327.406 9.70046
327.437 11.8937
327.468 15.6604
327.499 22.7896
327.515 28.9492
327.530 38.2862
327.546 53.1269
327.561 76.5760
327.581 119.954
327.600 148.840
327.619 119.960
327.639 76.5841
327.662 45.3199
327.684 29.4926
327.707 20.9986
327.730 16.0589
327.753 12.9638
327.775 10.9268
327.821 8.49792
327.866 7.16485
327.912 6.36100
328.002 5.48123
328.093 5.03615
328.184 4.78075
328.275 4.62077
328.366 4.51407
328.548 4.38465
328.729 4.31213
328.911 4.26729
329.093 4.23754
329.456 4.20147
329.820 4.18097
330.547 4.15891
331.273 4.14707
332.000 4.13930
333.454 4.12872
336.362 4.11393
339.269 4.10157
345.085 4.07880
350.900 4.05708
356.715 4.03611
362.530 4.01625
365.438 4.00748
366.892 4.00394
368.345 4.00177
369.799 4.00304
370.526 4.00690
371.253 4.01607
371.616 4.02471
371.980 4.03861
372.343 4.06228
372.707 4.10629
372.889 4.14366
373.070 4.20077
373.252 4.29410
373.434 4.46174
373.525 4.60068
373.615 4.80912
373.706 5.14227
373.797 5.72218
373.888 6.87062
373.933 7.91821
373.979 9.64843
374.024 12.8086
374.047 15.4488
374.070 19.4295
374.092 25.7823
374.115 36.6496
374.138 56.7420
374.161 95.7608
374.180 150.934
374.200 187.449
374.220 150.642
374.240 95.7681
374.255 66.7575
374.270 48.3276
374.285 36.4662
374.300 28.5928
374.331 19.3036
374.361 14.3660
374.392 11.4473
374.422 9.60034
374.483 7.48065
374.544 6.36297
374.605 5.70390
374.666 5.28340
374.727 4.99896
374.849 4.65004
374.970 4.45231
375.092 4.32950
375.214 4.24804
375.457 4.14979
375.701 4.09494
375.945 4.06105
376.188 4.03853
376.675 4.01107
377.162 3.99524
378.137 3.97765
379.111 3.96763
380.085 3.96061
382.033 3.95022
385.930 3.93409
389.827 3.91966
397.621 3.89197
405.415 3.86450
421.003 3.80814
436.591 3.74664
452.178 3.67261
459.972 3.62561
467.766 3.56512
475.560 3.47800
479.457 3.41498
483.354 3.32705
485.303 3.26771
487.251 3.19213
489.200 3.09202
491.148 2.95272
492.122 2.86049
493.096 2.74644
494.071 2.60324
495.045 2.42325
495.532 2.31958
496.019 2.21296
496.506 2.12305
496.993 2.11439
497.237 2.19820
497.480 2.42272
497.724 2.94604
497.846 3.42511
497.907 3.75393
497.968 4.16370
498.028 4.67959
498.089 5.33358
498.150 6.17108
498.211 7.25662
498.272 8.68415
498.333 10.5942
498.394 13.2037
498.455 16.8535
498.516 22.1383
498.576 30.0876
498.637 42.6661
498.698 63.9502
498.729 80.4514
498.759 103.435
498.790 136.802
498.820 186.992
498.851 266.995
498.881 401.637
498.911 644.125
498.942 1097.40
498.971 1804.77
499.000 2315.35
499.029 1900.23
499.058 1219.88
499.088 766.739
499.117 510.524
499.147 360.615
499.176 268.268
499.206 207.647
499.235 166.163
499.294 114.540
499.353 84.8072
499.412 66.1416
499.529 44.7214
499.647 33.2582
499.765 26.3403
499.882 21.8057
500.000 18.6487
500.153 15.7834
500.305 13.7697
500.610 11.1634
500.916 9.57349
501.221 8.51578
501.831 7.21129
502.441 6.44719
503.051 5.94918
503.662 5.60047
504.882 5.14611
506.103 4.86389
507.323 4.67180
509.764 4.42683
512.206 4.27659
514.647 4.17441
517.088 4.09989
519.529 4.04274
524.411 3.95982
529.293 3.90141
539.058 3.82153
548.822 3.76645
558.586 3.72394
578.115 3.65819
617.173 3.56044
656.230 3.48125
734.345 3.34354
773.403 3.27825
792.931 3.24599
797.814 3.23844
802.696 3.23231
805.137 3.23125
807.578 3.23601
808.799 3.24639
809.409 3.25781
810.019 3.27954
810.629 3.32708
810.934 3.37473
811.240 3.46143
811.392 3.53414
811.545 3.64448
811.697 3.82355
811.850 4.14237
811.926 4.40477
812.002 4.79597
812.079 5.41602
812.155 6.48255
812.231 8.55711
812.269 10.4189
812.308 13.4245
812.346 18.7496
812.365 23.0716
812.384 29.3528
812.403 39.0091
812.422 54.4840
812.441 80.9033
812.460 126.556
812.480 200.522
812.500 249.815
812.520 200.526
812.540 126.562
812.559 80.3704
812.579 54.0754
812.598 38.6382
812.617 29.0772
812.636 22.8339
812.655 18.5653
812.694 13.3056
812.732 10.3243
812.771 8.48881
812.847 6.44031
812.924 5.38506
813.001 4.77341
813.078 4.38693
813.155 4.12796
813.309 3.81270
813.462 3.63554
813.616 3.52616
813.770 3.45390
814.077 3.36726
814.384 3.31917
814.999 3.27010
815.614 3.24651
816.229 3.23309
817.458 3.21856
819.918 3.20529
822.377 3.19777
827.295 3.18667
832.213 3.17691
842.050 3.15803
851.887 3.13888
871.560 3.09814
891.234 3.05181
910.907 2.99461
920.744 2.95817
930.580 2.91169
940.417 2.84579
945.336 2.79880
950.254 2.73377
952.713 2.69008
955.172 2.63444
957.631 2.56053
960.091 2.45672
961.320 2.38707
962.550 2.29947
963.779 2.18637
965.009 2.03651
965.624 1.94346
966.238 1.83700
966.853 1.72094
967.468 1.61684
967.775 1.59231
968.083 1.62210
968.390 1.77946
968.698 2.25563
968.851 2.76211
968.928 3.13938
969.005 3.63921
969.082 4.31121
969.159 5.22622
969.236 6.49958
969.312 8.30983
969.389 10.9692
969.466 15.0181
969.543 21.5153
969.581 26.2791
969.620 32.6283
969.658 41.3241
969.697 53.5188
969.735 71.2651
969.774 98.2078
969.812 141.281
969.850 214.523
969.889 347.637
969.927 599.148
969.964 990.907
970.000 1279.13
970.037 1057.51
970.073 682.968
970.102 473.209
970.132 339.235
970.161 252.680
970.190 195.291
970.249 127.137
970.307 90.2983
970.365 68.1705
970.424 53.8777
970.541 37.0306
970.658 27.7883
970.775 22.1220
970.891 18.3674
971.008 15.7328
971.242 12.3350
971.476 10.2767
971.710 8.91625
971.944 7.95938
972.411 6.71561
972.879 5.95116
973.346 5.43796
973.814 5.07142
974.749 4.58505
975.684 4.27835
976.620 4.06779
977.555 3.91441
979.425 3.70582
981.296 3.57027
983.166 3.47470
985.037 3.40335
988.777 3.30294
992.518 3.23452
996.259 3.18386
1000.00 3.14405
1006.81 3.08816
1013.62 3.04472
1027.24 2.97604
1040.86 2.91810
1054.48 2.86346
1068.10 2.80819
1081.72 2.74957
1088.53 2.71834
1095.34 2.68585
1098.75 2.66969
1102.15 2.65559
1103.85 2.65200
1105.56 2.65889
1106.41 2.67685
1106.83 2.69714
1107.26 2.73597
1107.68 2.82124
1107.90 2.90651
1108.11 3.05997
1108.22 3.18899
1108.32 3.38171
1108.43 3.69468
1108.54 4.23976
1108.59 4.69109
1108.64 5.34394
1108.70 6.35833
1108.75 8.05685
1108.80 11.2146
1108.83 13.9762
1108.85 18.0723
1108.88 25.0799
1108.91 37.1328
1108.92 47.6984
1108.93 61.9033
1108.95 82.5794
1108.96 112.536
1108.98 177.597
1109.00 220.606
1109.02 177.603
1109.04 112.544
1109.05 80.7036
1109.07 59.3681
1109.10 35.9194
1109.12 23.7855
1109.15 17.3161
1109.18 13.2613
1109.21 10.7377
1109.26 7.77294
1109.31 6.14857
1109.37 5.19677
1109.42 4.57252
1109.48 4.15534
1109.59 3.63109
1109.70 3.33546
1109.81 3.15089
1109.91 3.02793
1110.13 2.87869
1110.35 2.79549
1110.79 2.70949
1111.23 2.66751
1111.66 2.64322
1112.54 2.61613
1114.28 2.58944
1116.03 2.57265
1119.52 2.54532
1123.02 2.51935
1130.01 2.46495
1137.00 2.40442
1150.97 2.25588
1164.95 2.04990
1171.94 1.91231
1178.93 1.73940
1185.92 1.51554
1192.91 1.21644
1196.40 1.02819
1199.89 0.808964
1203.39 0.560910
1206.88 0.313290
1208.63 0.224600
1209.51 0.205537
1210.38 0.216721
1211.25 0.275443
1211.69 0.330720
1212.13 0.409250
1212.56 0.517743
1213.00 0.664375
1213.44 0.860162
1213.87 1.11918
1214.31 1.46262
1214.75 1.91758
1215.18 2.52287
1215.62 3.33187
1216.06 4.42954
1216.49 5.93675
1216.93 8.04371
1217.37 11.0487
1217.80 15.4808
1218.24 22.2516
1218.68 33.1072
1219.11 51.6112
1219.55 86.2213
1219.77 115.536
1219.99 159.509
1220.21 229.387
1220.42 345.820
1220.64 552.410
1220.86 930.902
1221.08 1551.72
1221.30 2017.68
1221.52 1673.07
1221.74 1082.47
1221.97 676.512
1222.20 449.148
1222.43 317.802
1222.66 237.302
1222.89 184.484
1223.12 148.238
1223.58 103.184
1224.04 77.1188
1224.50 60.6767
1225.42 41.6437
1226.34 31.3319
1227.25 25.0340
1228.17 20.8588
1229.09 17.9239
1230.93 14.1120
1232.77 11.7804
1234.61 10.2239
1236.44 9.11911
1240.12 7.66362
1243.79 6.75478
1247.47 6.13603
1251.14 5.68861
1258.49 5.08569
1265.84 4.69831
1273.20 4.42787
1280.55 4.22786
1295.25 3.95001
1309.95 3.76405
1324.65 3.62882
1339.35 3.52442
1368.75 3.36928
1398.16 3.25371
1412.86 3.20424
1427.56 3.15832
1442.26 3.11553
1449.61 3.09854
1451.45 3.09779
1453.28 3.10541
1454.20 3.12063
1455.12 3.16813
1455.58 3.23555
1455.81 3.30271
1456.04 3.42352
1456.27 3.67697
1456.39 3.92252
1456.50 4.35039
1456.56 4.70421
1456.62 5.21677
1456.67 6.03147
1456.73 7.38091
1456.79 9.96365
1456.82 12.2082
1456.85 15.5723
1456.87 21.3769
1456.90 31.5601
1456.92 40.5978
1456.93 53.0179
1456.95 71.4933
1456.96 99.4241
1456.98 158.357
1457.00 195.598
1457.02 158.332
1457.04 99.3928
1457.06 71.4634
1457.07 51.9338
1457.09 39.1557
1457.10 31.0488
1457.13 20.8436
1457.16 15.2603
1457.19 11.9156
1457.22 9.76704
1457.27 7.27840
1457.33 5.95222
1457.39 5.16488
1457.45 4.66018
1457.51 4.31763
1457.62 3.89605
1457.74 3.65640
1457.97 3.40824
1458.20 3.28885
1458.43 3.22225
1458.90 3.15409
1459.83 3.10265
1460.75 3.08266
1462.61 3.06482
1464.47 3.05506
1471.90 3.02925
1486.75 2.98418
1501.61 2.93788
1509.03 2.91483
1512.75 2.90890
1513.68 2.91277
1514.61 2.92960
1515.07 2.95555
1515.53 3.03027
1515.77 3.13200
1515.88 3.23094
1516.00 3.40578
1516.11 3.75893
1516.17 4.08862
1516.23 4.64651
1516.29 5.70073
1516.32 6.61755
1516.35 8.05566
1516.37 10.4828
1516.40 14.9947
1516.42 18.9578
1516.43 24.4876
1516.45 33.6300
1516.46 47.4021
1516.48 74.5213
1516.50 92.0006
1516.52 74.5240
1516.54 47.4055
1516.56 30.7722
1516.58 21.0603
1516.60 15.4393
1516.61 12.1408
1516.63 9.86182
1516.65 8.31698
1516.69 6.46693
1516.73 5.39482
1516.76 4.75208
1516.84 4.03142
1516.91 3.65506
1516.99 3.43943
1517.14 3.20984
1517.43 3.03409
1517.73 2.96866
1518.33 2.91893
1518.92 2.89969
1520.12 2.88284
1521.31 2.87393
1526.08 2.85097
1535.62 2.80914
1545.16 2.76206
1554.70 2.70612
1564.24 2.63638
1573.78 2.54413
1578.55 2.48484
1583.32 2.41301
1585.71 2.37198
1588.09 2.33049
1589.28 2.31481
1590.48 2.31934
1591.07 2.35113
1591.37 2.39019
1591.67 2.46736
1591.97 2.63861
1592.12 2.80975
1592.26 3.11756
1592.34 3.37390
1592.41 3.75162
1592.49 4.35924
1592.56 5.39196
1592.64 7.42567
1592.67 9.22277
1592.71 12.1174
1592.75 17.3824
1592.79 27.6225
1592.81 37.1743
1592.82 51.6613
1592.84 77.4992
1592.86 121.822
1592.88 192.143
1592.90 241.256
1592.92 192.140
1592.94 121.817
1592.96 70.7883
1592.99 44.3459
1593.01 30.1786
1593.03 21.9521
1593.05 16.8219
1593.08 13.4312
1593.12 9.45611
1593.17 7.21949
1593.21 5.87049
1593.31 4.40822
1593.40 3.65954
1593.49 3.23360
1593.67 2.78494
1593.85 2.56329
1594.04 2.43690
1594.40 2.30226
1594.77 2.23145
1595.13 2.18645
1595.86 2.12689
1597.32 2.04339
1598.79 1.96685
1601.71 1.79236
1604.63 1.56053
1606.09 1.41175
1607.55 1.23377
1609.02 1.02175
1610.48 0.782313
1611.21 0.666782
1611.94 0.582305
1612.67 0.592634
1613.03 0.679459
1613.40 0.874133
1613.77 1.26048
1613.95 1.57092
1614.13 1.99750
1614.31 2.59345
1614.50 3.42521
1614.68 4.61678
1614.86 6.33992
1615.04 8.92904
1615.23 12.9437
1615.41 19.4725
1615.59 30.7132
1615.68 39.6408
1615.77 52.1041
1615.87 70.2642
1615.96 97.8252
1616.05 142.388
1616.14 217.144
1616.23 351.759
1616.32 602.863
1616.41 1010.88
1616.50 1316.32
1616.59 1095.28
1616.68 714.163
1616.76 467.283
1616.85 320.900
1616.93 232.509
1617.02 176.929
1617.10 139.286
1617.19 113.018
1617.36 79.8946
1617.53 60.3192
1617.70 47.8715
1618.04 33.2680
1618.37 25.2729
1618.71 20.3566
1619.05 17.0816
1619.39 14.7692
1620.07 11.7580
1620.75 9.90916
1621.43 8.67163
1622.10 7.79103
1623.46 6.62930
1624.82 5.90233
1626.17 5.40684
1627.53 5.04833
1630.24 4.56511
1632.95 4.25470
1635.66 4.03825
1638.37 3.87845
1643.80 3.65715
1649.22 3.50992
1654.65 3.40371
1660.07 3.32255
1670.92 3.20419
1681.76 3.11934
1687.19 3.08479
1692.61 3.05503
1695.32 3.04313
1698.04 3.03741
1699.39 3.04247
1700.75 3.06970
1701.43 3.11341
1701.77 3.15850
1702.10 3.24169
1702.44 3.41908
1702.61 3.59435
1702.78 3.90632
1702.87 4.16545
1702.95 4.55371
1703.04 5.17310
1703.12 6.23310
1703.21 8.33663
1703.25 10.2178
1703.29 13.2838
1703.33 18.9372
1703.35 23.5066
1703.38 30.2765
1703.40 40.8271
1703.42 58.2874
1703.44 89.0985
1703.46 148.004
1703.48 235.833
1703.50 293.292
1703.52 235.856
1703.54 148.033
1703.56 87.1998
1703.59 56.2097
1703.61 39.0137
1703.63 28.7746
1703.65 22.0367
1703.67 17.7557
1703.72 12.5757
1703.76 9.64636
1703.81 7.90622
1703.90 5.98114
1703.98 4.98997
1704.07 4.42522
1704.16 4.06632
1704.25 3.82899
1704.43 3.53794
1704.60 3.37586
1704.96 3.20948
1705.31 3.12949
1705.67 3.08477
1706.38 3.03801
1707.79 2.99983
1709.21 2.98211
1712.05 2.96118
1714.88 2.94575
1726.22 2.89477
1748.90 2.80182
1771.57 2.70451
1794.25 2.58808
1816.93 2.42681
1828.27 2.31208
1839.61 2.15346
1845.28 2.04721
1850.95 1.91275
1856.62 1.73627
1862.29 1.49414
1865.12 1.33638
1867.96 1.14464
1870.79 0.910485
1873.63 0.631275
1875.04 0.482615
1876.46 0.348136
1877.17 0.299282
1877.88 0.277377
1878.59 0.303560
1879.30 0.415306
1879.65 0.523496
1880.00 0.683172
1880.36 0.914960
1880.71 1.24606
1881.07 1.72083
1881.42 2.40107
1881.78 3.38905
1882.13 4.84969
1882.49 7.07193
1882.84 10.5514
1883.19 16.2722
1883.55 26.2969
1883.73 34.2898
1883.90 45.5841
1884.08 62.1812
1884.26 87.6193
1884.43 128.668
1884.61 199.129
1884.79 328.464
1884.96 575.631
1885.13 965.837
1885.30 1264.49
1885.47 1057.52
1885.64 690.212
1885.75 508.695
1885.86 383.131
1885.98 296.723
1886.09 236.546
1886.32 160.633
1886.55 117.144
1886.77 89.9607
1887.00 71.9783
1887.45 50.2094
1887.91 37.9121
1888.36 30.2468
1888.82 25.0835
1889.27 21.4277
1890.18 16.6472
1891.09 13.7113
1892.00 11.7501
1892.91 10.3602
1894.73 8.53351
1896.54 7.39916
1898.36 6.63071
1900.18 6.07837
1903.81 5.33929
1907.45 4.86916
1911.08 4.54407
1914.72 4.30582
1921.99 3.97938
1929.26 3.76532
1936.53 3.61316
1943.80 3.49868
1958.34 3.33589
1972.88 3.22347
1980.15 3.17871
1987.42 3.13951
1994.69 3.10591
1998.33 3.09617
1999.24 3.09896
2000.15 3.11402
2000.60 3.13817
2001.05 3.20832
2001.28 3.30418
2001.51 3.56250
2001.62 3.89811
2001.68 4.21260
2001.74 4.73450
2001.79 5.73717
2001.82 6.63095
2001.85 7.98858
2001.88 10.3760
2001.91 14.6832
2001.92 18.3001
2001.93 23.6885
2001.95 31.9459
2001.96 44.9777
2001.98 69.9140
2002.00 86.8981
2002.02 69.9191
2002.04 44.9839
2002.06 29.8667
2002.07 20.7212
2002.09 15.3514
2002.11 12.0282
2002.13 9.86036
2002.15 8.37961
2002.18 6.59432
2002.22 5.54960
2002.25 4.92068
2002.32 4.20447
2002.39 3.83108
2002.47 3.61762
2002.61 3.39166
2002.89 3.21774
2003.18 3.15296
2003.75 3.10367
2004.32 3.08451
2006.60 3.05878
2011.15 3.03703
2020.27 3.00344
2029.39 2.97351
2038.50 2.94598
2056.73 2.89632
2065.85 2.87399
2070.41 2.86495
2072.68 2.86719
2073.82 2.89380
2074.11 2.92231
2074.39 3.00081
2074.54 3.10478
2074.68 3.37184
2074.75 3.69945
2074.82 4.46536
2074.86 5.31423
2074.89 6.95296
2074.91 8.47474
2074.93 10.9345
2074.95 15.1259
2074.96 22.1113
2074.98 33.5143
2075.00 41.3237
2075.02 33.5062
2075.04 22.1011
2075.05 15.4250
2075.07 11.2863
2075.09 8.79664
2075.10 7.30302
2075.14 5.54833
2075.17 4.64650
2075.24 3.79569
2075.30 3.43407
2075.44 3.13412
2075.57 3.01704
2075.84 2.92704
2076.10 2.89343
2077.16 2.85786
2079.29 2.84437
2083.55 2.83254
2092.05 2.81316
2109.07 2.77693
2143.10 2.70908
2177.13 2.64441
2194.15 2.61311
2202.65 2.60024
2204.78 2.59954
2206.91 2.60498
2207.97 2.61613
2209.03 2.65121
2209.57 2.70128
2210.10 2.84183
2210.36 3.03264
2210.50 3.21860
2210.63 3.54857
2210.76 4.22016
2210.83 4.85866
2210.90 5.93333
2210.96 8.02883
2211.00 9.85569
2211.03 12.7602
2211.06 17.7583
2211.09 27.3303
2211.11 35.9611
2211.13 48.4740
2211.14 69.7877
2211.16 102.688
2211.18 162.359
2211.20 202.648
2211.22 162.372
2211.24 102.704
2211.26 65.2269
2211.28 43.1393
2211.30 30.4607
2211.32 22.7421
2211.34 17.7666
2211.36 14.3981
2211.40 10.2896
2211.44 7.98905
2211.48 6.57809
2211.56 5.01396
2211.64 4.21410
2211.72 3.75162
2211.88 3.26762
2212.04 3.02997
2212.20 2.89737
2212.52 2.76089
2213.16 2.65940
2213.79 2.62228
2215.07 2.59376
2216.35 2.58207
2221.46 2.56327
2231.67 2.54131
2252.10 2.50068
2272.53 2.45934
2282.75 2.43859
2287.86 2.43002
2290.41 2.43350
2291.69 2.46549
2292.01 2.49959
2292.32 2.59390
2292.48 2.71951
2292.64 3.04541
2292.72 3.45373
2292.80 4.43238
2292.84 5.52867
2292.88 7.79001
2292.90 9.91817
2292.92 13.4805
2292.94 19.8579
2292.96 31.3840
2292.98 48.4420
