Ba-135(n,g) ENDF/B-VII.1
Energy(eV) XS(b)
1.00000E-05 295.323
1.25000E-05 264.145
1.50000E-05 241.130
2.00000E-05 208.825
2.75000E-05 178.087
3.50000E-05 157.857
4.25000E-05 143.253
5.00000E-05 132.073
6.25000E-05 118.129
7.50000E-05 107.837
0.000100000 93.3893
0.000125000 83.5300
0.000150000 76.2521
0.000200000 66.0362
0.000275000 56.3158
0.000350000 49.9186
0.000425000 45.3004
0.000500000 41.7648
0.000625000 37.3556
0.000750000 34.1008
0.00100000 29.5321
0.00125000 26.4142
0.00150000 24.1127
0.00200000 20.8821
0.00275000 17.8082
0.00350000 15.7852
0.00425000 14.3247
0.00500000 13.2067
0.00625000 11.8123
0.00750000 10.7830
0.0100000 9.33812
0.0125000 8.35208
0.0150000 7.62420
0.0200000 6.60246
0.0253000 5.87003
0.0314750 5.26253
0.0376500 4.81140
0.0500000 4.17467
0.0625000 3.73353
0.0750000 3.40786
0.100000 2.95067
0.125000 2.63859
0.150000 2.40819
0.200000 2.08469
0.275000 1.77675
0.350000 1.57400
0.500000 1.31544
0.750000 1.07224
1.00000 0.927220
1.50000 0.755354
2.00000 0.653270
2.75000 0.556980
3.50000 0.494721
5.00000 0.418738
7.50000 0.357846
10.0000 0.338639
12.5000 0.352306
15.0000 0.412349
17.5000 0.577511
18.7500 0.760986
20.0000 1.12568
20.5386 1.40285
21.0773 1.82573
21.6159 2.51777
22.1546 3.76823
22.4239 4.81283
22.6932 6.39552
22.9625 8.96266
23.2318 13.5424
23.3665 17.3181
23.5012 22.9635
23.6358 31.9523
23.7705 47.5539
23.8378 60.0618
23.9051 78.2546
23.9725 106.151
24.0398 152.015
24.1071 234.985
24.1408 303.959
24.1745 407.236
24.2081 570.636
24.2418 846.559
24.2754 1347.44
24.3091 2296.50
24.3396 3672.26
24.3700 4587.13
24.4005 3666.72
24.4309 2290.02
24.4559 1531.93
24.4808 1060.96
24.5058 765.639
24.5308 573.553
24.5807 352.076
24.6307 236.210
24.6806 168.812
24.7305 126.398
24.8304 78.2404
24.9303 53.0649
25.0302 38.3083
25.1301 28.9362
25.2299 22.6203
25.4297 14.9074
25.6295 10.5608
25.8292 7.87483
26.0290 6.10124
26.4285 3.98034
26.8280 2.81044
27.2275 2.09849
27.6270 1.63380
28.4261 1.08506
29.2251 0.786508
30.0242 0.606801
30.8232 0.490644
32.4213 0.355359
34.0193 0.283461
37.2155 0.216038
43.6077 0.182894
50.0000 0.198310
57.9681 0.273594
61.9522 0.353419
65.9363 0.497092
69.9203 0.792994
71.9124 1.07730
73.9044 1.57966
74.9004 1.99274
75.8964 2.61213
76.8924 3.60814
77.3904 4.35388
77.8884 5.37606
78.3865 6.83421
78.8845 9.02343
79.3825 12.5415
79.8805 18.7564
80.1295 23.8423
80.3785 31.4011
80.6275 43.3536
80.8765 63.9146
81.0010 80.2647
81.1255 103.864
81.2500 139.690
81.3745 197.781
81.4990 300.733
81.5613 384.523
81.6235 507.438
81.6858 696.427
81.7480 1003.27
81.8103 1529.94
81.8725 2457.53
81.9363 3929.27
82.0000 4907.56
82.0638 3923.47
82.1275 2451.66
82.1991 1425.90
82.2708 890.489
82.3424 597.911
82.4140 425.727
82.4856 317.321
82.5573 245.204
82.7005 158.786
82.8437 111.260
82.9870 82.5082
83.2735 51.1765
83.5600 35.6137
83.8465 27.0400
84.1330 22.1334
84.4195 19.4810
84.9924 19.1474
85.2789 21.8708
85.4222 24.4047
85.5654 28.1525
85.6371 30.6605
85.7087 33.7353
85.7803 37.5354
85.8161 39.7724
85.8519 42.2790
85.8878 45.0979
85.9236 48.2781
85.9952 55.9834
86.0668 66.0737
86.1384 79.6015
86.2101 98.2724
86.2817 124.977
86.3533 164.949
86.4249 228.390
86.4965 337.192
86.5324 422.771
86.5682 544.217
86.6040 722.913
86.6398 996.333
86.6756 1429.68
86.7114 2122.01
86.7557 3391.97
86.8000 4237.33
86.8443 3389.19
86.8886 2118.88
86.9398 1215.18
86.9910 751.822
87.0423 501.962
87.0935 356.206
87.1447 264.970
87.1959 204.507
87.2983 132.300
87.4008 92.6539
87.5032 68.6412
87.7081 42.2903
87.9129 28.9081
88.1178 21.1811
88.5275 13.0271
88.9373 9.00548
89.3470 6.70991
90.1665 4.29419
90.9859 3.10061
91.8054 2.42401
93.4443 1.75419
95.0832 1.52536
96.7222 1.58692
98.3611 2.02463
99.1805 2.50919
100.000 3.36343
100.483 4.18478
100.966 5.43665
101.449 7.46647
101.932 11.0629
102.174 14.0004
102.415 18.3490
102.657 25.1785
102.898 36.8041
103.019 45.9555
103.140 59.0255
103.260 78.6383
103.381 109.899
103.502 164.122
103.562 207.334
103.623 269.382
103.683 362.573
103.743 509.039
103.804 749.901
103.864 1151.90
103.932 1839.23
104.000 2302.42
104.068 1860.34
104.136 1205.08
104.186 899.324
104.235 741.037
104.285 730.993
104.334 951.551
104.400 1489.66
104.466 807.258
104.489 606.801
104.513 470.723
104.559 311.034
104.606 225.817
104.653 174.667
104.746 116.997
104.839 85.6692
105.026 52.9212
105.212 36.3894
105.399 26.6955
105.586 20.4746
105.959 13.1945
106.332 9.23909
106.705 6.84695
107.452 4.21653
108.198 2.87474
108.944 2.09736
110.437 1.27481
111.930 0.868764
113.422 0.637246
116.408 0.393950
119.393 0.273319
122.379 0.203729
128.350 0.129289
134.320 0.0916732
140.291 0.0698268
152.233 0.0468286
164.175 0.0361995
176.117 0.0316336
188.058 0.0317953
200.000 0.0403446
204.734 0.0505445
209.468 0.0744299
211.835 0.100931
213.019 0.123263
214.202 0.158059
215.386 0.218802
215.978 0.269784
216.569 0.350625
217.161 0.498835
217.457 0.630915
217.753 0.852941
218.049 1.28780
218.197 1.69208
218.345 2.38418
218.493 3.73700
218.567 4.96511
218.641 6.98563
218.715 10.6666
218.752 13.7485
218.788 18.3854
218.825 25.8163
218.862 38.5694
218.881 48.4948
218.899 62.2683
218.918 81.6167
218.936 108.444
218.952 138.833
218.968 173.334
219.000 216.405
219.016 203.586
219.032 173.105
219.064 108.440
219.094 68.5373
219.124 45.5220
219.154 31.9459
219.184 23.5332
219.245 14.2352
219.305 9.57454
219.365 6.93692
219.426 5.31647
219.546 3.52500
219.667 2.62534
219.788 2.12701
220.029 1.66671
220.270 1.53451
220.511 1.57182
220.994 2.03359
221.235 2.50877
221.477 3.26152
221.718 4.50393
221.959 6.72362
222.080 8.54488
222.200 11.2432
222.321 15.4834
222.442 22.6942
222.502 28.3654
222.562 36.4344
222.623 48.4673
222.683 67.4888
222.743 99.9462
222.773 125.413
222.803 161.281
222.834 213.951
222.864 293.693
222.894 419.288
222.924 616.846
222.962 982.944
223.000 1225.32
223.039 977.592
223.077 608.580
223.116 372.228
223.155 240.982
223.193 165.769
223.232 119.980
223.271 90.4479
223.310 70.4414
223.387 46.0172
223.465 32.3257
223.543 23.9213
223.698 14.6001
223.853 9.82507
224.008 7.06401
224.163 5.32420
224.318 4.15938
224.629 2.74370
224.939 1.94972
225.249 1.46009
225.560 1.13695
226.180 0.750294
226.801 0.536586
227.422 0.406164
228.042 0.320805
229.283 0.219760
230.525 0.164870
233.007 0.111827
235.490 0.0913262
237.972 0.0906433
239.214 0.102992
239.834 0.117483
240.455 0.145161
241.076 0.205177
241.386 0.264665
241.696 0.371709
242.007 0.593938
242.162 0.807722
242.317 1.18138
242.472 1.92538
242.550 2.60935
242.627 3.74585
242.705 5.84155
242.744 7.61611
242.782 10.3241
242.821 14.7185
242.860 22.4199
242.899 37.1808
242.918 49.5890
242.937 67.2006
242.953 86.0500
242.969 107.443
243.000 134.251
243.031 107.428
243.063 67.1827
243.082 49.4195
243.102 37.0592
243.140 22.3537
243.179 14.6783
243.218 10.2972
243.257 7.59679
243.296 5.82678
243.373 3.73604
243.451 2.59981
243.528 1.91810
243.684 1.17634
243.839 0.803368
243.994 0.590264
244.305 0.368526
244.615 0.261632
244.926 0.202123
245.547 0.141791
246.168 0.113536
246.789 0.0982737
248.030 0.0837509
250.514 0.0762975
252.998 0.0782609
257.966 0.0954753
262.934 0.133499
265.418 0.166680
267.902 0.217874
270.386 0.302307
272.869 0.455989
274.111 0.585150
275.353 0.781895
276.595 1.10332
277.837 1.68245
278.458 2.16466
279.079 2.89249
279.700 4.06626
280.321 6.14064
280.632 7.83434
280.942 10.3414
281.253 14.2776
281.563 20.9693
281.718 26.2244
281.874 33.7087
282.029 44.8816
282.184 62.5446
282.339 92.7397
282.495 149.878
282.572 198.951
282.650 273.670
282.727 391.354
282.805 577.999
282.903 924.578
283.000 1155.29
283.098 923.888
283.195 577.311
283.257 421.823
283.319 314.178
283.443 187.495
283.567 122.188
283.691 85.2156
283.815 62.5544
283.938 47.7611
284.186 30.3573
284.434 20.9451
284.682 15.3038
285.177 9.18167
285.673 6.11257
286.169 4.36071
286.664 3.26821
287.160 2.54170
288.151 1.66649
289.142 1.18000
290.133 0.882447
291.125 0.687688
293.107 0.457774
295.089 0.334170
297.072 0.262457
299.054 0.220171
303.019 0.191068
305.001 0.203067
306.983 0.244530
308.966 0.351987
309.957 0.465037
310.948 0.674748
311.444 0.852490
311.939 1.12424
312.435 1.56909
312.931 2.37095
313.178 3.03795
313.426 4.04315
313.674 5.66008
313.798 6.86553
313.922 8.50633
314.046 10.8197
314.170 14.2287
314.293 19.5480
314.417 28.5100
314.479 35.4892
314.541 45.3340
314.603 59.8792
314.665 82.4944
314.727 120.331
314.789 189.427
314.820 246.794
314.851 330.880
314.882 458.010
314.913 649.010
314.956 1038.30
315.000 1297.70
315.044 1038.05
315.087 648.750
315.118 458.788
315.149 332.678
315.179 248.413
315.210 191.134
315.271 121.668
315.332 83.5637
315.394 60.6995
315.455 45.9956
315.578 28.9464
315.700 19.8523
315.823 14.4501
315.945 10.9861
316.068 8.63604
316.313 5.74083
316.558 4.09543
316.804 3.07214
317.049 2.39307
317.539 1.57559
318.029 1.12129
318.520 0.842906
319.010 0.660013
319.991 0.442075
320.971 0.321961
321.952 0.248680
322.933 0.200631
324.894 0.143393
326.855 0.111839
330.778 0.0801958
334.701 0.0660222
338.623 0.0594505
346.469 0.0581389
354.314 0.0699581
358.237 0.0835830
362.159 0.108018
366.082 0.157535
368.043 0.204688
370.005 0.287940
371.966 0.460130
372.947 0.627687
373.927 0.927477
374.418 1.17623
374.908 1.55097
375.398 2.15466
375.889 3.22146
376.134 4.09289
376.379 5.38379
376.624 7.41303
376.869 10.8676
376.992 13.5858
377.115 17.4668
377.237 23.2716
377.360 32.4774
377.482 48.2944
377.544 60.7593
377.605 78.4819
377.666 104.626
377.728 144.767
377.789 208.675
377.850 311.111
377.925 497.655
378.000 621.922
378.075 497.461
378.150 310.913
378.201 222.589
378.252 162.901
378.303 122.634
378.354 94.9300
378.455 60.9719
378.557 42.1330
378.659 30.7343
378.760 23.3737
378.964 14.7951
379.167 10.1957
379.371 7.45703
379.778 4.50173
380.184 3.02856
380.591 2.19175
380.998 1.67241
381.405 1.32901
382.219 0.919399
383.033 0.696622
384.660 0.483887
386.288 0.402320
387.915 0.379976
391.170 0.442771
392.798 0.530225
394.425 0.676605
396.053 0.925746
397.680 1.38208
398.494 1.76329
399.308 2.33796
400.121 3.26129
400.935 4.88138
401.342 6.19363
401.749 8.12045
402.156 11.1121
402.563 16.1151
402.969 25.4064
403.173 33.3417
403.376 45.5481
403.580 65.6054
403.783 101.364
403.885 130.262
403.987 171.764
404.088 232.502
404.190 321.098
404.345 513.111
404.500 640.687
404.656 512.000
404.811 319.621
404.920 226.461
405.028 164.317
405.137 122.867
405.246 94.5849
405.463 60.2665
405.680 41.4227
405.898 30.0988
406.115 22.8147
406.550 14.3610
406.985 9.84913
407.419 7.16806
407.854 5.44850
408.289 4.28125
409.158 2.84407
410.027 2.02731
410.897 1.51945
411.766 1.18247
413.505 0.777368
415.244 0.552886
416.982 0.416233
418.721 0.327681
422.198 0.227881
425.676 0.191701
427.415 0.203528
428.284 0.226791
429.153 0.276857
430.023 0.392320
430.457 0.509837
430.892 0.724323
431.109 0.904088
431.327 1.17610
431.544 1.61591
431.761 2.39393
431.870 3.02964
431.979 3.97072
432.088 5.44799
432.196 7.95493
432.305 12.7248
432.359 16.8953
432.413 23.4783
432.468 34.7156
432.495 43.5066
432.522 55.8635
432.549 73.9789
432.576 101.329
432.604 144.303
432.631 211.716
432.648 271.247
432.665 338.872
432.700 423.302
432.717 398.194
432.735 338.448
432.769 211.678
432.801 135.906
432.832 91.1946
432.864 64.3298
432.895 47.4074
432.958 28.4994
433.021 18.9071
433.084 13.4192
433.147 10.0133
433.273 6.18593
433.399 4.20423
433.525 3.05084
433.651 2.32103
433.777 1.83035
434.029 1.23196
434.280 0.895046
434.532 0.686598
434.784 0.548613
435.288 0.382734
435.791 0.290331
436.799 0.195588
437.806 0.149807
438.813 0.123829
440.828 0.0964465
444.857 0.0761621
448.886 0.0740280
452.916 0.0888871
454.930 0.108691
456.945 0.147828
457.952 0.181907
458.960 0.234754
459.967 0.322387
460.974 0.482559
461.478 0.617409
461.982 0.822825
462.485 1.15814
462.989 1.76061
463.241 2.26073
463.493 3.01253
463.744 4.21834
463.996 6.33216
464.122 8.04484
464.248 10.5571
464.374 14.4563
464.437 17.2686
464.500 20.9759
464.563 26.0149
464.626 33.0729
464.689 43.4037
464.752 59.2650
464.815 85.3292
464.878 131.671
464.909 169.124
464.941 222.859
464.972 301.408
465.004 415.417
465.052 664.890
465.100 830.693
465.148 664.229
465.197 415.299
465.231 293.618
465.265 212.650
465.299 158.775
465.333 122.059
465.401 77.6510
465.469 53.3099
465.537 38.7111
465.605 29.3258
465.740 18.4526
465.876 12.6491
466.012 9.20459
466.148 6.99427
466.284 5.49494
466.556 3.64877
466.828 2.59958
467.100 1.94709
467.372 1.51396
467.916 0.992848
468.459 0.703247
469.003 0.525845
469.547 0.409338
470.635 0.270594
471.722 0.194181
472.810 0.147587
473.897 0.117035
476.073 0.0805891
478.248 0.0603649
482.598 0.0395550
486.949 0.0293463
491.299 0.0234214
500.000 0.0169105
509.406 0.0132192
518.811 0.0110081
537.622 0.00857364
556.433 0.00745651
575.244 0.00717701
594.055 0.00787824
603.461 0.00891023
612.866 0.0109605
622.272 0.0154717
626.974 0.0199835
631.677 0.0282018
634.028 0.0351229
636.380 0.0457009
638.731 0.0630828
641.083 0.0947297
642.258 0.121391
643.434 0.162136
644.610 0.229026
645.785 0.350464
646.373 0.452386
646.961 0.607413
647.549 0.860195
648.137 1.31409
648.431 1.69075
648.725 2.25695
649.018 3.16511
649.312 4.75744
649.459 6.04718
649.606 7.93939
649.753 10.8791
649.900 15.7933
649.974 19.5921
650.047 24.9242
650.121 32.7215
650.194 44.7028
650.268 64.4031
650.341 99.5473
650.378 128.002
650.415 168.765
650.451 228.412
650.488 315.420
650.544 504.820
650.600 630.751
650.656 504.385
650.712 315.340
650.776 182.158
650.840 113.257
650.903 75.7526
650.967 53.7921
651.031 39.9778
651.095 30.8149
651.222 19.8424
651.350 13.8025
651.477 10.1425
651.732 6.13090
651.987 4.09958
652.242 2.93333
652.497 2.20274
652.752 1.71523
653.262 1.12564
653.771 0.796628
654.281 0.594639
654.791 0.461993
655.811 0.304517
656.830 0.218852
657.850 0.168052
658.870 0.136648
660.909 0.107833
661.929 0.107336
662.949 0.119938
663.968 0.159827
664.478 0.203608
664.988 0.285608
665.243 0.355152
665.498 0.461074
665.753 0.633245
666.008 0.939838
666.135 1.19166
666.263 1.56622
666.390 2.15782
666.518 3.17071
666.645 5.12352
666.709 6.85552
666.773 9.63050
666.836 14.4699
666.900 23.8938
666.932 32.2562
666.964 45.3476
666.996 66.8916
667.028 102.645
667.064 164.297
667.100 205.242
667.136 164.104
667.173 102.632
667.199 72.1359
667.224 52.0568
667.250 38.7225
667.276 29.7130
667.328 18.8444
667.380 12.9159
667.432 9.37153
667.484 7.09801
667.588 4.46826
667.692 3.06868
667.795 2.23843
667.899 1.70649
668.003 1.34585
668.210 0.901604
668.418 0.649201
668.626 0.492038
668.833 0.387638
669.248 0.261688
669.663 0.191361
670.493 0.119322
671.324 0.0847014
672.154 0.0652010
673.814 0.0447725
675.475 0.0345520
677.135 0.0285646
680.456 0.0220602
687.097 0.0172253
693.739 0.0169059
700.381 0.0206257
703.702 0.0253308
707.022 0.0344574
708.683 0.0423426
710.343 0.0545389
712.004 0.0747552
713.664 0.111790
714.494 0.143080
715.324 0.190956
716.155 0.269583
716.985 0.412241
717.400 0.531783
717.815 0.713313
718.230 1.00844
718.645 1.53614
718.853 1.97203
719.060 2.62415
719.268 3.66406
719.475 5.46974
719.579 6.91883
719.683 9.02730
719.787 12.2613
719.890 17.5721
719.942 21.6086
719.994 27.1840
720.046 35.1689
720.098 47.1207
720.150 66.0047
720.202 97.8505
720.254 155.517
720.280 201.367
720.306 264.113
720.353 422.739
720.400 528.171
720.447 422.337
720.495 264.065
720.548 153.544
720.601 95.8377
720.654 64.3026
720.707 45.7370
720.760 34.0459
720.813 26.2639
720.919 16.9368
721.025 11.7919
721.132 8.67024
721.344 5.24506
721.556 3.50856
721.769 2.51089
721.981 1.88528
722.193 1.46784
722.618 0.962619
723.043 0.680327
723.467 0.506810
723.892 0.392609
724.742 0.256409
725.591 0.181391
726.440 0.135732
727.290 0.105900
728.988 0.0705818
730.687 0.0512798
732.386 0.0396023
734.085 0.0320137
737.482 0.0231036
740.880 0.0183091
747.675 0.0137088
761.265 0.0111187
774.855 0.0114192
788.445 0.0134605
802.036 0.0182878
808.831 0.0233692
815.626 0.0347017
819.023 0.0482923
820.722 0.0610874
822.421 0.0837160
824.120 0.130906
824.969 0.177258
825.818 0.260974
826.243 0.331034
826.668 0.437443
827.093 0.610660
827.517 0.921273
827.730 1.17871
827.942 1.56521
828.154 2.18463
828.367 3.26818
828.579 5.42833
828.685 7.41738
828.791 10.7298
828.844 13.2823
828.898 16.8535
828.951 22.0539
829.004 29.9946
829.057 42.9523
829.110 65.7959
829.136 84.0860
829.163 109.977
829.189 147.358
829.216 201.093
829.258 321.875
829.300 402.130
829.342 321.545
829.384 201.067
829.431 116.995
829.478 73.1321
829.526 49.1217
829.573 34.9690
829.620 26.0489
829.667 20.1076
829.761 12.9772
829.855 9.04299
829.950 6.65786
830.138 4.03854
830.326 2.71026
830.515 1.94713
830.703 1.46860
830.892 1.14935
831.269 0.763091
831.646 0.547453
832.022 0.415079
832.399 0.328120
833.153 0.224817
833.907 0.168403
835.415 0.112807
836.922 0.0882140
838.430 0.0761625
841.445 0.0678869
847.475 0.0764263
853.506 0.107339
856.521 0.135307
859.536 0.178559
862.551 0.249540
865.566 0.377255
867.074 0.483200
868.582 0.642436
870.089 0.897700
870.843 1.08742
871.597 1.34500
872.351 1.70701
873.104 2.23837
873.858 3.06320
874.612 4.44293
874.989 5.50889
875.366 7.00516
875.743 9.19341
876.120 12.5623
876.496 18.0980
876.873 27.9805
877.062 35.9776
877.250 47.4676
877.439 64.3026
877.627 88.8932
877.914 142.143
878.200 177.567
878.487 142.032
878.773 88.7857
879.112 50.2538
879.451 30.7924
879.791 20.4135
880.130 14.4042
880.469 10.6641
880.808 8.19582
881.487 5.26214
882.165 3.66092
882.843 2.69758
884.200 1.65668
885.557 1.15956
886.913 0.955442
887.592 0.987820
887.931 1.07862
888.270 1.28103
888.609 1.74640
888.779 2.21027
888.948 3.03190
889.118 4.67402
889.203 6.18076
889.288 8.67643
889.372 13.2330
889.415 17.0528
889.457 22.8206
889.500 32.0425
889.521 38.8201
889.542 47.8571
889.563 60.1529
889.584 77.1989
889.606 101.115
889.627 134.258
889.645 171.889
889.663 214.651
889.700 268.046
889.718 252.179
889.737 214.401
889.773 134.234
889.797 97.4448
889.821 72.2713
889.869 42.9691
889.916 28.0155
889.964 19.6040
890.011 14.4699
890.059 11.1277
890.154 7.20473
890.250 5.08452
890.345 3.81519
890.535 2.43432
890.726 1.73711
890.916 1.33519
891.297 0.908780
891.678 0.694547
892.059 0.568535
892.820 0.427597
894.344 0.298442
895.867 0.233428
898.914 0.163193
901.961 0.124938
908.055 0.0865380
914.149 0.0727188
920.243 0.0772630
923.290 0.0900320
926.337 0.117774
929.384 0.181280
930.908 0.245476
932.431 0.362051
933.193 0.459321
933.954 0.606047
934.716 0.842174
935.478 1.25758
936.240 2.09166
936.621 2.86555
937.001 4.16615
937.382 6.59979
937.573 8.69335
937.763 11.9410
937.954 17.3385
938.144 27.1257
938.239 35.1708
938.334 46.9115
938.430 64.4369
938.525 90.5740
938.662 144.903
938.800 181.103
938.938 144.855
939.075 90.5265
939.194 59.3273
939.313 40.4391
939.432 28.8486
939.551 21.4320
939.789 13.0172
940.027 8.68127
940.265 6.18295
940.503 4.62071
940.979 2.85734
941.455 1.93988
941.931 1.40364
942.407 1.06362
942.883 0.834702
943.835 0.555162
