Ba-136(n,tot) ENDF/B-VII.1
Energy(eV) XS(b)
1.00000E-05 37.1803
1.25000E-05 33.5711
1.50000E-05 30.9069
2.00000E-05 27.1673
2.75000E-05 23.6090
3.50000E-05 21.2672
4.25000E-05 19.5766
5.00000E-05 18.2823
6.25000E-05 16.6683
7.50000E-05 15.4768
0.000100000 13.8044
0.000125000 12.6630
0.000150000 11.8205
0.000200000 10.6379
0.000275000 9.51269
0.000350000 8.77214
0.000425000 8.23753
0.000500000 7.82825
0.000625000 7.31783
0.000750000 6.94105
0.00100000 6.41217
0.00125000 6.05124
0.00150000 5.78481
0.00200000 5.41083
0.00275000 5.05498
0.00350000 4.82078
0.00425000 4.65170
0.00500000 4.52226
0.00625000 4.36083
0.00750000 4.24166
0.0100000 4.07437
0.0125000 3.96020
0.0150000 3.87592
0.0200000 3.75759
0.0253000 3.67275
0.0314750 3.60237
0.0376500 3.55009
0.0500000 3.47628
0.0625000 3.42511
0.0750000 3.38731
0.100000 3.33420
0.125000 3.29789
0.150000 3.27104
0.200000 3.23323
0.275000 3.19708
0.350000 3.17310
0.500000 3.14219
0.750000 3.11244
1.00000 3.09409
1.50000 3.07111
2.00000 3.05625
2.75000 3.04059
3.50000 3.02892
5.00000 3.01127
7.50000 2.98946
10.0000 2.97202
15.0000 2.94336
20.0000 2.91937
27.5000 2.88869
35.0000 2.86241
50.0000 2.81887
75.0000 2.76357
100.000 2.72149
125.000 2.68757
150.000 2.65896
200.000 2.61119
261.914 2.55959
323.828 2.50556
354.785 2.47273
385.741 2.43044
401.220 2.40269
416.698 2.36685
424.438 2.34382
432.177 2.31454
436.046 2.29559
437.981 2.28414
439.916 2.27055
441.851 2.25355
442.818 2.24311
443.786 2.23103
444.753 2.21792
445.237 2.21255
445.720 2.21189
445.962 2.21644
446.204 2.22863
446.446 2.25693
446.688 2.32253
446.809 2.38557
446.930 2.48929
447.051 2.67006
447.171 3.01239
447.232 3.30447
447.292 3.74875
447.353 4.46298
447.413 5.69734
447.474 8.07477
447.504 10.1537
447.534 13.4137
447.565 18.9015
447.595 28.8974
447.610 37.1337
447.625 49.1525
447.633 57.2647
447.640 67.0677
447.648 79.2148
447.655 93.7473
447.666 120.713
447.678 151.653
447.700 192.464
447.711 182.922
447.723 157.342
447.745 100.991
447.771 60.5103
447.796 39.2757
447.822 27.5623
447.847 20.5995
447.873 16.1575
447.898 13.1850
447.949 9.56827
448.000 7.53194
448.051 6.27455
448.153 4.85585
448.255 4.10844
448.357 3.66326
448.460 3.37388
448.562 3.17413
448.766 2.92049
448.970 2.76944
449.174 2.67070
449.378 2.60175
449.786 2.51254
450.195 2.45771
451.011 2.39369
451.828 2.35686
452.644 2.33218
454.277 2.29930
455.910 2.27627
457.543 2.25751
460.809 2.22497
467.341 2.16147
473.873 2.08585
480.404 1.98482
486.936 1.83738
490.202 1.73403
493.468 1.59871
496.734 1.41515
498.367 1.29784
500.000 1.15891
501.224 1.03975
502.447 0.910952
503.671 0.787342
504.894 0.723204
505.506 0.764388
505.812 0.825025
506.118 0.929217
506.271 1.00388
506.424 1.09812
506.730 1.36510
506.883 1.55128
507.036 1.78471
507.188 2.07840
507.341 2.44957
507.494 2.92188
507.647 3.52681
507.800 4.31025
507.953 5.33573
508.106 6.69953
508.259 8.54318
508.412 11.0914
508.565 14.7083
508.718 20.0197
508.871 28.1458
509.024 41.3016
509.177 64.2195
509.253 82.4703
509.330 108.645
509.406 147.792
509.483 209.418
509.559 313.504
509.635 504.830
509.674 664.078
509.712 897.432
509.750 1247.93
509.788 1774.41
509.844 2903.20
509.900 3707.80
509.956 3031.41
510.012 1935.89
510.066 1230.74
510.121 823.882
510.175 583.596
510.230 433.990
510.284 335.349
510.339 267.373
510.448 182.664
510.557 133.847
510.666 103.185
510.883 68.0929
511.101 49.3770
511.319 38.1385
511.537 30.8029
511.755 25.7218
512.191 19.2595
512.626 15.4079
513.062 12.8942
513.498 11.1443
514.369 8.89617
515.241 7.53202
516.112 6.62426
516.983 5.97935
518.726 5.12364
520.469 4.57182
521.341 4.35635
521.776 4.25920
522.212 4.17100
522.648 4.10384
522.866 4.09276
523.083 4.12459
523.301 4.27587
523.410 4.46878
523.519 4.85849
523.628 5.73065
523.683 6.59000
523.737 8.08118
523.791 10.9445
523.819 13.4264
523.846 17.2725
523.873 23.6278
523.900 34.8532
523.914 43.8154
523.928 56.5092
523.941 74.7551
523.955 100.869
523.966 129.997
523.977 163.623
524.000 209.017
524.011 199.566
524.023 172.575
524.045 112.423
524.060 84.2906
524.074 64.7110
524.103 41.3691
524.133 29.0842
524.162 22.0372
524.191 17.6302
524.220 14.7156
524.278 11.1991
524.336 9.23416
524.394 8.01776
524.510 6.63665
524.626 5.89818
524.743 5.44862
524.859 5.14950
524.975 4.93713
525.207 4.65581
525.440 4.47655
525.905 4.25561
526.369 4.11818
526.834 4.01949
527.764 3.87831
529.623 3.69277
531.482 3.56378
535.201 3.38367
538.919 3.25945
546.356 3.09574
553.793 2.99144
561.229 2.91866
568.666 2.86471
583.540 2.78951
598.413 2.73897
613.287 2.70216
643.034 2.65096
672.781 2.61582
702.528 2.58921
762.023 2.54941
881.011 2.49300
1000.00 2.44789
1159.41 2.39211
1318.81 2.33508
1398.51 2.30454
1438.36 2.28851
1478.21 2.27187
1518.07 2.25465
1557.92 2.23720
1577.84 2.22910
1587.81 2.22575
1597.77 2.22367
1607.73 2.22494
1612.71 2.22877
1617.69 2.23794
1620.18 2.24662
1622.68 2.26063
1625.17 2.28459
1627.66 2.32939
1628.90 2.36764
1630.15 2.42636
1631.39 2.52296
1632.64 2.69811
1633.26 2.84467
1633.88 3.06661
1634.51 3.42583
1635.13 4.06228
1635.44 4.58553
1635.75 5.36030
1636.06 6.58146
1636.37 8.66866
1636.69 12.6931
1636.84 16.2594
1637.00 21.9176
1637.15 31.7839
1637.31 50.7442
1637.39 67.5012
1637.46 93.6396
1637.54 136.120
1637.62 204.900
1637.71 326.888
1637.80 408.361
1637.89 326.895
1637.98 204.918
1638.07 128.140
1638.16 85.0118
1638.25 59.5629
1638.34 44.0553
1638.43 33.8462
1638.51 26.9631
1638.69 18.4470
1638.87 13.6421
1639.04 10.6799
1639.40 7.38623
1639.75 5.68789
1640.10 4.70541
1640.46 4.08379
1640.81 3.66797
1641.52 3.16137
1642.23 2.87674
1642.93 2.70103
1643.64 2.58496
1645.05 2.44575
1646.47 2.36856
1647.88 2.32116
1649.30 2.28986
1652.13 2.25207
1654.95 2.23064
1657.78 2.21699
1660.61 2.20753
1666.27 2.19498
1671.92 2.18661
1683.24 2.17482
1694.55 2.16556
1705.86 2.15720
1728.49 2.14117
1751.11 2.12495
1773.74 2.10799
1818.99 2.07070
1864.24 2.02701
1909.50 1.97377
1954.75 1.90532
2000.00 1.80996
2034.68 1.70122
2052.02 1.62460
2069.36 1.52087
2078.04 1.45275
2086.71 1.36781
2095.38 1.25782
2104.05 1.10829
2108.38 1.01090
2112.72 0.891747
2117.05 0.743514
2121.39 0.558301
2123.56 0.451524
2125.72 0.340629
2127.89 0.243289
2128.98 0.214538
2130.06 0.217825
2131.14 0.283966
2131.68 0.358195
2132.23 0.476096
2132.77 0.657667
2133.31 0.933946
2133.85 1.35469
2134.39 2.00139
2134.94 3.02123
2135.48 4.68231
2136.02 7.52352
2136.56 12.7375
2136.83 17.0350
2137.10 23.3509
2137.37 33.0370
2137.65 48.7236
2137.92 75.9962
2138.19 128.061
2138.32 172.863
2138.46 239.994
2138.59 343.988
2138.73 505.708
2138.91 840.873
2139.10 1091.84
2139.29 905.950
2139.47 587.915
2139.63 403.456
2139.78 286.878
2139.94 212.711
2140.09 163.792
2140.40 106.274
2140.71 75.3376
2141.02 56.8439
2141.33 44.8894
2141.95 30.8216
2142.57 23.0688
2143.19 18.2996
2143.81 15.1274
2144.43 12.8958
2145.67 9.99649
2146.91 8.22796
2148.15 7.05036
2149.39 6.21626
2151.87 5.12139
2154.35 4.44013
2156.82 3.97680
2159.30 3.64169
2164.26 3.18791
2169.22 2.89249
2174.17 2.68176
2179.13 2.52105
2189.05 2.28349
2198.96 2.10425
2218.79 1.80593
2228.70 1.65617
2238.62 1.48942
2248.53 1.29051
2258.45 1.03763
2263.40 0.881315
2268.36 0.699134
2273.32 0.489146
2278.27 0.264254
2280.75 0.165633
2281.99 0.129531
2283.23 0.110362
2284.47 0.118774
2285.71 0.171983
2286.33 0.223752
2286.95 0.298712
2287.57 0.404041
2288.19 0.548680
2288.81 0.745747
2289.43 1.01252
2290.05 1.37356
2290.67 1.86310
2291.29 2.53411
2291.91 3.46147
2292.53 4.76771
2293.15 6.64000
2293.77 9.40552
2294.39 13.6289
2295.01 20.3766
2295.62 31.7992
2296.24 52.8434
2296.55 70.3259
2296.86 96.1179
2297.17 136.044
2297.48 200.661
2297.79 310.176
2298.10 498.632
2298.45 836.131
2298.80 1094.16
2299.15 915.559
2299.50 598.019
2299.76 429.414
2300.01 316.994
2300.27 241.574
2300.53 190.091
2301.04 127.000
2301.56 91.8070
2302.07 70.1869
2302.59 55.9666
2303.62 38.9379
2304.65 29.4057
2305.68 23.4813
2306.71 19.5043
2307.73 16.6880
2309.79 13.0092
2311.85 10.7482
2313.91 9.23573
2315.97 8.16094
2320.09 6.74622
2324.21 5.86363
2328.32 5.26362
2332.44 4.83033
2340.68 4.24746
2348.91 3.87354
2357.15 3.61290
2365.39 3.42034
2381.86 3.15350
2398.33 2.97574
2414.80 2.84742
2431.27 2.74943
2464.22 2.60709
2497.16 2.50585
2563.05 2.36365
2628.93 2.25994
2694.82 2.17342
2727.77 2.13347
2760.71 2.09516
2777.18 2.07712
2793.65 2.06187
2801.89 2.05806
2810.12 2.06519
2814.24 2.08378
2816.30 2.10479
2818.36 2.14521
2820.42 2.23434
2821.45 2.32415
2822.48 2.48812
2822.99 2.62624
2823.51 2.83663
2824.02 3.17986
2824.54 3.79458
2824.80 4.30600
2825.05 5.07121
2825.31 6.29550
2825.57 8.43403
2825.82 12.7056
2825.95 16.6359
2826.08 23.1165
2826.21 35.1292
2826.27 45.2074
2826.34 60.5296
2826.40 85.7682
2826.47 129.221
2826.53 211.777
2826.56 280.593
2826.60 378.198
2826.65 605.348
2826.70 752.606
2826.75 600.677
2826.81 378.072
2826.84 270.470
2826.88 197.982
2826.91 149.228
2826.95 116.495
2827.02 75.2288
2827.09 52.6812
2827.16 38.8583
2827.23 30.0511
2827.38 19.7550
2827.52 14.1897
2827.66 10.8765
2827.81 8.74863
2827.95 7.31097
2828.23 5.52517
2828.52 4.51220
2828.80 3.87921
2829.09 3.46012
2829.66 2.95430
2830.23 2.67283
2830.80 2.50018
2831.37 2.38678
2832.51 2.25109
2833.66 2.17601
2835.94 2.09923
2838.22 2.06192
2840.51 2.04031
2845.07 2.01594
2854.20 1.99126
2863.34 1.97522
2881.60 1.94884
2899.87 1.92409
2936.40 1.87401
2972.93 1.82092
3046.00 1.69973
3119.06 1.54661
3192.13 1.33720
3228.66 1.19735
3265.19 1.02057
3301.72 0.790008
3319.99 0.647563
3338.25 0.483644
3356.52 0.299971
3374.79 0.115102
3379.35 0.0756954
3383.92 0.0433825
3388.49 0.0222263
3393.05 0.0183487
3395.34 0.0256361
3397.62 0.0410922
3399.90 0.0667386
3402.18 0.105180
3404.47 0.159926
3406.75 0.236458
3409.03 0.351336
3410.18 0.473016
3410.46 0.547769
3410.75 0.712971
3410.89 0.901970
3411.03 1.32140
3411.10 1.76973
3411.17 2.62170
3411.25 4.52226
3411.28 6.42407
3411.32 9.51541
3411.36 14.9050
3411.40 18.5661
3411.44 14.9100
3411.48 9.51488
3411.52 6.17791
3411.56 4.27074
3411.64 2.43247
3411.72 1.64484
3411.80 1.25676
3411.95 0.903343
3412.11 0.759452
3412.42 0.655096
3412.74 0.629569
3413.99 0.682044
3415.25 0.792220
3416.50 0.927881
3421.51 1.74313
3424.02 2.38129
3426.53 3.25765
3429.04 4.47938
3431.54 6.21598
3434.05 8.74795
3436.56 12.5561
3439.06 18.5252
3441.57 28.3934
3444.08 45.9068
3445.33 59.9431
3446.59 80.0177
3447.84 109.700
3449.09 155.002
3450.35 226.283
3451.60 338.887
3453.30 572.815
3455.00 755.216
3456.70 636.859
3458.40 419.211
3459.75 295.833
3461.10 215.362
3462.44 162.806
3463.79 127.413
3466.49 84.8635
3469.18 61.4421
3471.88 47.1893
3474.58 37.8487
3479.97 26.6728
3485.36 20.4140
3490.75 16.5080
3496.14 13.8776
3501.53 12.0046
3512.31 9.54311
3523.10 8.01724
3533.88 6.98936
3536.58 6.78455
3539.27 6.59859
3541.97 6.44638
3542.64 6.42906
3543.31 6.45703
3543.65 6.53102
3543.99 6.76899
3544.16 7.10210
3544.33 7.98513
3544.41 9.09438
3544.45 10.1031
3544.49 11.7604
3544.54 14.7525
3544.56 17.2328
3544.58 20.9374
3544.60 26.7737
3544.62 36.5784
3544.64 54.2483
3544.66 88.5399
3544.68 138.604
3544.70 170.847
3544.72 138.614
3544.74 88.5509
3544.75 67.5168
3544.76 52.0562
3544.79 33.7280
3544.81 24.2086
3544.83 18.9701
3544.86 15.5786
3544.88 13.4411
3544.93 10.8395
3544.97 9.42085
3545.02 8.56522
3545.12 7.62974
3545.30 6.88220
3545.49 6.59193
3545.87 6.35982
3546.24 6.26210
3547.00 6.16403
3547.75 6.10294
3550.76 5.92661
3553.77 5.77752
3556.78 5.64099
3568.82 5.18149
3592.91 4.53595
3616.99 4.10358
3641.08 3.79328
3689.24 3.37537
3737.41 3.10362
3833.75 2.76100
3930.09 2.54079
4026.42 2.37299
4122.76 2.22192
4170.93 2.13945
4219.10 2.03247
4243.18 1.95273
4255.22 1.89713
4267.26 1.82101
4279.31 1.70528
4285.33 1.61909
4291.35 1.49746
4294.36 1.41526
4297.37 1.31108
4300.38 1.17475
4303.39 0.989820
4304.90 0.871283
4306.40 0.730325
4307.91 0.564482
4309.41 0.381680
4310.92 0.242248
4311.67 0.269300
4312.05 0.351003
4312.42 0.520475
4312.80 0.842678
4313.17 1.43777
4313.36 1.90714
4313.55 2.55548
4313.74 3.46323
4313.93 4.75747
4314.12 6.65904
4314.30 9.50879
4314.49 13.9697
4314.68 21.3175
4314.87 34.2578
4314.96 44.5436
4315.06 59.1480
4315.15 80.4956
4315.24 112.652
4315.34 162.324
4315.43 239.314
4315.57 408.146
4315.70 540.946
4315.84 457.876
4315.97 303.041
4316.06 222.572
4316.16 167.862
4316.25 130.379
4316.35 104.158
4316.53 71.3679
4316.72 52.6100
4316.91 40.8624
4317.10 33.0790
4317.48 23.6089
4317.85 18.2141
4318.23 14.8254
4318.61 12.5235
4318.98 10.8822
4319.73 8.71402
4320.49 7.36562
4321.24 6.45506
4321.99 5.80364
4323.50 4.93723
4325.00 4.39186
4326.51 4.01824
4328.01 3.74725
4331.03 3.38077
4334.04 3.14478
4337.05 2.98006
4340.06 2.85842
4346.08 2.69024
4352.10 2.57880
4364.15 2.43829
4376.19 2.35128
4388.23 2.29042
4412.32 2.20737
4460.50 2.10518
4508.67 2.03560
4556.85 1.98136
4580.94 1.95938
4605.03 1.94284
4617.07 1.93820
4629.11 1.93806
4641.16 1.94616
4653.20 1.97139
4659.22 1.99702
4665.25 2.03954
4671.27 2.11350
4677.29 2.25315
4680.30 2.37268
4683.31 2.55643
4686.32 2.85857
4689.33 3.40512
4690.84 3.86089
4692.35 4.54821
4693.85 5.65596
4695.36 7.60713
4696.11 9.19565
4696.86 11.5389
4697.62 15.1998
4698.37 21.3673
4699.12 32.9832
4699.50 43.0555
4699.87 58.7369
4700.25 85.0896
4700.63 133.407
4700.81 173.638
4701.00 233.075
4701.19 323.166
4701.38 459.883
4701.64 735.136
4701.90 918.739
4702.16 735.024
4702.42 459.816
4702.66 294.294
4702.90 197.568
4703.14 139.447
4703.38 103.103
4703.86 62.5083
4704.34 41.9774
4704.82 30.2437
4705.30 22.9606
4706.25 14.8013
4707.21 10.5788
4708.17 8.12300
4709.12 6.56951
4710.08 5.52521
4712.00 4.25180
4713.91 3.53477
4715.83 3.09130
4717.74 2.79792
4721.57 2.44509
4725.40 2.24842
4729.23 2.12695
4733.06 2.04613
4740.72 1.94721
4748.37 1.88967
4756.03 1.85186
4763.69 1.82465
4779.01 1.78649
4794.33 1.75901
4809.64 1.73659
4824.96 1.71686
4855.59 1.68149
4886.23 1.64871
4916.86 1.61790
4924.52 1.61155
4932.18 1.60902
4936.01 1.61347
4939.84 1.63540
4941.75 1.67116
4943.67 1.77894
4944.62 1.93157
4945.10 2.08389
4945.58 2.35892
4946.06 2.93412
4946.30 3.48752
4946.54 4.45509
4946.78 6.38600
4946.90 8.15716
4947.02 11.0621
4947.14 16.4051
4947.20 20.8882
4947.26 27.5224
4947.32 38.2668
4947.38 56.6669
4947.44 90.7096
4947.50 155.591
4947.55 249.184
4947.60 310.694
4947.65 250.123
4947.70 156.772
4947.76 98.2915
4947.81 65.1558
4947.86 45.7986
4947.91 33.8503
4947.96 26.0654
4948.01 20.7506
4948.11 14.2087
4948.22 10.4821
4948.32 8.20717
4948.52 5.66399
4948.73 4.34668
4948.93 3.58412
4949.34 2.77574
4949.75 2.37715
4950.16 2.15217
4950.97 1.91884
4951.79 1.80594
4952.61 1.74236
4954.24 1.67618
4957.51 1.62430
4960.78 1.60287
4967.32 1.58233
4973.85 1.57035
5000.00 1.53784
5069.99 1.46378
5139.98 1.38944
5279.96 1.23182
5419.94 1.05643
5559.93 0.855326
5699.91 0.616377
5769.90 0.476924
5839.89 0.320622
5909.88 0.150268
5944.87 0.0695118
5962.37 0.0369155
5971.12 0.0247213
5979.87 0.0167391
5988.62 0.0146289
5997.37 0.0207503
6006.12 0.0385076
6014.87 0.0729131
6023.61 0.131522
6032.36 0.226039
6041.11 0.375205
6049.86 0.610198
6058.61 0.985611
6067.36 1.60265
6076.11 2.66413
6084.86 4.61921
6089.23 6.23456
6093.60 8.61193
6097.98 12.2661
6102.35 18.1991
6106.73 28.5598
6111.10 48.4688
6113.29 65.6479
6115.48 91.7705
6117.66 132.689
6119.85 197.142
6122.78 327.435
6125.70 424.354
6128.63 351.670
6131.55 227.552
6133.68 163.179
6135.80 120.060
6137.93 91.2062
6140.05 71.4183
6144.30 47.2255
6148.55 33.7418
6152.80 25.5111
6157.05 20.1586
6159.18 18.2044
6160.24 17.3922
6161.30 16.7174
6162.37 16.2675
6162.90 16.2115
6163.43 16.4038
6163.70 16.6777
6163.96 17.1712
6164.23 18.0515
6164.49 19.6769
6164.76 22.9856
6164.89 26.0017
6165.02 30.8641
6165.16 39.5025
6165.29 56.6260
6165.36 72.1607
6165.42 96.5260
6165.49 137.052
6165.55 206.205
6165.63 321.499
6165.70 399.022
6165.77 321.729
6165.85 206.303
6165.90 143.741
6165.96 104.543
6166.02 79.6440
6166.08 63.2776
6166.19 44.1893
6166.31 34.0737
6166.43 28.0844
6166.54 24.3138
6166.78 19.9579
6167.01 17.6050
6167.24 16.1808
6167.47 15.2329
6167.70 14.5570
6168.17 13.6457
6168.63 13.0419
6169.56 12.2333
6170.49 11.6574
6171.42 11.1891
6173.28 10.4145
6175.14 9.76427
6177.00 9.19492
6180.72 8.22910
6188.15 6.76595
6195.59 5.70918
6210.46 4.29507
6225.33 3.40132
6255.07 2.34451
6284.81 1.73977
6344.29 1.05774
6403.77 0.662587
6463.26 0.392801
6522.74 0.198169
6552.48 0.124424
6582.22 0.0668952
6597.09 0.0448459
6611.96 0.0280586
6626.83 0.0196919
6634.27 0.0316705
6636.13 0.0475386
6637.99 0.0939657
6638.92 0.158449
6639.84 0.336731
6640.31 0.575027
6640.77 1.20299
6641.01 2.00015
6641.12 2.72847
6641.24 3.93596
6641.35 6.14668
6641.41 8.00618
6641.47 10.8241
6641.53 15.3525
6641.59 23.1758
6641.64 37.8505
6641.70 66.9210
6641.75 107.132
6641.80 133.992
6641.85 107.257
6641.90 67.0770
6641.95 40.9190
6642.00 26.6492
6642.05 18.4128
6642.10 13.3715
6642.14 10.1070
6642.19 7.88862
6642.29 5.17138
6642.39 3.64289
6642.49 2.70226
6642.68 1.65580
6642.88 1.11864
6643.08 0.807184
6643.47 0.478890
6644.25 0.228078
6645.04 0.135555
6646.61 0.0668030
6648.17 0.0418963
6654.45 0.0175335
6667.00 0.0156692
6679.55 0.0246821
6692.10 0.0407164
6704.65 0.0638983
6717.20 0.0948827
6742.30 0.183936
6767.40 0.316978
6792.50 0.506300
6817.60 0.768519
6842.70 1.12621
6867.80 1.61057
6892.90 2.26520
6918.01 3.15231
6943.11 4.36222
6968.21 6.02945
6993.31 8.35905
7018.41 11.6741
7030.96 13.8559
7034.10 14.4727
7037.23 15.1264
7038.80 15.4745
7040.37 15.8566
7041.16 16.0856
7041.94 16.4112
7042.33 16.6977
7042.72 17.3030
7042.92 17.9906
7043.12 19.5718
7043.21 21.3089
7043.31 24.8521
7043.36 28.1605
7043.41 33.6638
7043.46 43.4467
7043.51 61.6428
7043.55 89.0152
7043.60 106.941
7043.65 89.1131
7043.69 61.7821
7043.72 48.9949
7043.76 40.1801
7043.79 34.2738
7043.82 30.2282
7043.88 25.3124
7043.95 22.6414
7044.08 19.9614
7044.20 18.7653
7044.46 17.7732
7044.71 17.4097
7045.22 17.1990
7045.73 17.1963
7046.75 17.3500
7047.77 17.5672
7049.81 18.0576
7051.85 18.5815
7060.01 20.8932
7076.32 26.6161
7108.95 44.6345
7141.57 78.9388
7157.89 107.172
7174.20 146.812
7205.80 261.711
7237.40 361.312
7269.00 317.478
7300.60 217.439
7331.93 146.629
7363.27 103.947
7394.60 77.8356
7425.94 61.0335
7457.27 49.6597
7488.60 41.6391
7504.27 38.5285
7512.11 37.1763
7519.94 35.9818
7527.77 35.0242
7531.69 34.7110
7535.61 34.6317
7539.52 35.0813
7541.48 35.7566
7543.44 37.1087
7545.40 39.9609
7546.38 42.5902
7547.36 46.8754
7548.33 54.4127
7549.31 69.1766
7549.80 82.2686
7550.29 102.745
7550.78 136.277
7551.27 191.703
7551.84 288.318
7552.40 352.612
7552.97 287.959
7553.53 191.416
7553.91 146.099
7554.29 115.410
7554.67 94.5512
7555.04 80.1526
7555.80 62.4032
7556.56 52.4931
7557.31 46.4423
7558.07 42.4966
7559.58 37.8118
7561.10 35.2134
7562.61 33.5945
7565.64 31.6885
7568.66 30.5705
7571.69 29.7958
7577.74 28.6958
7583.79 27.8624
7589.85 27.1534
7601.95 25.9289
7614.06 24.8577
7626.16 23.8911
7650.37 22.1923
