La-139(n,g) ENDF/B-VII.1
Energy(eV) XS(b)
1.00000E-05 455.088
1.25000E-05 407.043
1.50000E-05 371.578
2.00000E-05 321.796
2.75000E-05 274.428
3.50000E-05 243.255
4.25000E-05 220.750
5.00000E-05 203.521
6.25000E-05 182.035
7.50000E-05 166.174
0.000100000 143.911
0.000125000 128.718
0.000150000 117.503
0.000200000 101.760
0.000275000 86.7810
0.000350000 76.9229
0.000425000 69.8062
0.000500000 64.3580
0.000625000 57.5633
0.000750000 52.5476
0.00100000 45.5071
0.00125000 40.7024
0.00150000 37.1557
0.00200000 32.1771
0.00275000 27.4400
0.00350000 24.3222
0.00425000 22.0714
0.00500000 20.3483
0.00625000 18.1992
0.00750000 16.6127
0.0100000 14.3857
0.0125000 12.8657
0.0150000 11.7436
0.0200000 10.1683
0.0253000 9.03892
0.0314750 8.10201
0.0376500 7.40613
0.0500000 6.42373
0.0625000 5.74287
0.0750000 5.24007
0.100000 4.53386
0.125000 4.05155
0.150000 3.69527
0.200000 3.19476
0.275000 2.71826
0.350000 2.40534
0.500000 2.01671
0.605750 1.88372
0.658625 1.95317
0.685063 2.18362
0.698281 2.48339
0.711500 3.09512
0.734000 4.55035
0.756500 3.08691
0.771719 2.37378
0.786938 2.03431
0.817375 1.74952
0.878250 1.55831
1.00000 1.40681
1.25000 1.23171
1.50000 1.11045
2.00000 0.941574
2.75000 0.779571
3.50000 0.671471
5.00000 0.531327
7.50000 0.396887
10.0000 0.315840
15.0000 0.220398
20.0000 0.165578
27.5000 0.117212
35.0000 0.0893674
42.5000 0.0733036
50.0000 0.0669343
55.5641 0.0716139
58.3462 0.0804868
61.1282 0.0995213
63.9103 0.143586
65.3013 0.188804
66.6923 0.272344
67.3878 0.343266
68.0833 0.452145
68.7788 0.631661
69.4744 0.959164
69.8221 1.23515
70.1699 1.65664
70.5176 2.34744
70.8654 3.59769
71.0393 4.64313
71.2131 6.22761
71.3870 8.79724
71.5609 13.3760
71.6478 17.1447
71.7348 22.7680
71.8217 31.6929
71.9087 47.1047
71.9521 59.3938
71.9956 77.1710
72.0391 104.227
72.0825 148.232
72.1260 226.542
72.1477 290.548
72.1695 384.750
72.1912 530.383
72.2129 768.326
72.2347 1180.50
72.2564 1914.94
72.2782 3062.75
72.3000 3826.98
72.3218 3061.24
72.3436 1913.33
72.3571 1409.07
72.3706 1056.26
72.3976 636.327
72.4246 417.172
72.4516 292.095
72.4787 215.010
72.5057 164.490
72.5597 104.834
72.6137 72.4441
72.6677 52.9836
72.7757 31.8180
72.8838 21.1834
72.9918 15.1048
73.0998 11.3098
73.2079 8.78366
73.4239 5.73644
73.6400 4.03938
73.8561 2.99867
74.0721 2.31503
74.5043 1.50137
74.9364 1.05426
75.3685 0.782603
75.8007 0.605348
76.6649 0.395807
77.5292 0.281396
78.3934 0.212143
79.2577 0.167041
80.9862 0.113724
82.7148 0.0844971
86.1718 0.0548983
89.6289 0.0406585
93.0859 0.0325012
100.000 0.0235752
112.500 0.0160910
125.000 0.0122249
150.000 0.00803126
175.000 0.00574868
200.000 0.00433002
224.090 0.00342128
236.135 0.00311920
242.158 0.00316886
245.169 0.00391543
246.674 0.00711587
247.051 0.0104123
247.427 0.0196574
247.615 0.0322712
247.804 0.0668613
247.898 0.112778
247.945 0.156858
247.992 0.233551
248.039 0.385791
248.062 0.524747
248.086 0.754592
248.109 1.17657
248.121 1.53137
248.133 2.06321
248.145 2.92279
248.156 4.38858
248.168 7.14533
248.180 12.5111
248.190 20.0514
248.200 25.0102
248.210 19.9726
248.220 12.5121
248.231 7.30907
248.242 4.59491
248.254 3.08841
248.265 2.20578
248.276 1.64311
248.287 1.27114
248.309 0.823072
248.332 0.574282
248.354 0.423700
248.398 0.257626
248.443 0.173321
248.487 0.124805
248.576 0.0740386
248.754 0.0356412
248.932 0.0216029
249.288 0.0112772
249.645 0.00757677
251.069 0.00392130
253.918 0.00293650
259.615 0.00258529
271.010 0.00231412
293.800 0.00195227
316.590 0.00168992
327.985 0.00162463
333.683 0.00176754
336.531 0.00251873
337.956 0.00556505
338.312 0.00868260
338.668 0.0174059
338.846 0.0292907
339.024 0.0617857
339.113 0.104785
339.202 0.217347
339.246 0.358163
339.269 0.486616
339.291 0.697010
339.313 1.07977
339.324 1.39680
339.335 1.87147
339.347 2.63041
339.358 3.90315
339.369 6.21247
339.380 10.5841
339.390 16.9547
339.400 21.1407
339.410 16.8880
339.420 10.5848
339.430 6.56257
339.440 4.30627
339.450 2.98999
339.459 2.17842
339.479 1.28991
339.499 0.847053
339.518 0.597132
339.538 0.443031
339.577 0.271335
339.655 0.131957
339.734 0.0780584
339.891 0.0369935
340.047 0.0218811
340.361 0.0107286
340.675 0.00672570
341.929 0.00278073
344.438 0.00175681
349.456 0.00146375
359.493 0.00132678
379.565 0.00118405
419.710 0.000988177
500.000 0.000784212
529.339 0.000778824
558.678 0.000881127
573.347 0.00106699
580.682 0.00126301
588.017 0.00162974
595.351 0.00242754
599.019 0.00323060
602.686 0.00470696
604.520 0.00596011
606.353 0.00788720
608.187 0.0110749
610.021 0.0169214
610.938 0.0218758
611.854 0.0294825
612.771 0.0420420
613.688 0.0650101
614.147 0.0844197
614.605 0.114131
615.063 0.162982
615.522 0.251789
615.751 0.326361
615.980 0.439837
616.209 0.624851
616.439 0.957063
616.553 1.23256
616.668 1.64663
616.782 2.31038
616.897 3.47302
617.012 5.79255
617.069 7.93070
617.126 11.5001
617.183 18.1069
617.212 23.7411
617.241 32.3521
617.269 46.4774
617.298 71.4056
617.312 91.5613
617.327 120.141
617.341 161.623
617.355 221.596
617.378 354.862
617.400 443.168
617.422 354.207
617.445 221.573
617.466 140.806
617.486 93.7373
617.507 65.7394
617.528 48.3009
617.569 28.8768
617.611 19.0667
617.652 13.4747
617.694 10.0178
617.777 6.14569
617.860 4.14459
617.943 2.98222
618.026 2.24686
618.109 1.75362
618.275 1.15276
618.441 0.815012
618.607 0.606544
618.773 0.468991
619.106 0.304320
619.438 0.213363
619.770 0.157862
620.102 0.121548
620.766 0.0784692
621.431 0.0548783
622.095 0.0405741
622.759 0.0312530
624.088 0.0202477
625.417 0.0142477
626.745 0.0106212
628.074 0.00826375
630.731 0.00548764
633.388 0.00397840
636.046 0.00306853
638.703 0.00247864
644.018 0.00178746
649.332 0.00141636
659.961 0.00106552
670.590 0.000949845
681.219 0.00102741
691.848 0.00190881
694.506 0.00287120
697.163 0.00563528
698.491 0.00950038
699.820 0.0204837
700.484 0.0357387
700.817 0.0509704
701.149 0.0787634
701.481 0.138003
701.647 0.196687
701.813 0.302785
701.896 0.391546
701.979 0.525796
702.062 0.743488
702.145 1.13006
702.187 1.44827
702.228 1.92083
702.270 2.66801
702.311 3.95099
702.353 6.43146
702.374 8.64848
702.394 12.1993
702.415 18.4519
702.436 30.7088
702.446 41.7362
702.457 59.2764
702.467 88.5400
702.477 137.657
702.489 220.475
702.500 275.782
702.511 220.477
702.523 137.660
702.533 87.4619
702.544 58.2227
702.555 40.8332
702.565 30.0430
702.586 17.9771
702.607 11.8770
702.628 8.40367
702.650 6.24913
702.692 3.83504
702.734 2.58595
702.776 1.86127
702.818 1.40312
702.861 1.09533
702.945 0.720158
703.030 0.509477
703.114 0.379256
703.198 0.293380
703.367 0.190551
703.536 0.133723
703.874 0.0763646
704.212 0.0494336
704.550 0.0346771
705.225 0.0198923
706.576 0.00923615
707.927 0.00547850
710.629 0.00277771
713.331 0.00182536
724.140 0.000892542
745.757 0.000648490
788.991 0.000622162
810.609 0.000677374
832.226 0.000837652
843.034 0.00104863
848.439 0.00125352
853.843 0.00162213
859.247 0.00240251
861.949 0.00317781
864.651 0.00459366
866.003 0.00579112
867.354 0.00762880
868.705 0.0106634
870.056 0.0162202
871.407 0.0281406
872.082 0.0400417
872.758 0.0617779
873.433 0.108168
873.771 0.154204
874.109 0.237648
874.278 0.307548
874.447 0.413641
874.616 0.586000
874.784 0.893622
874.869 1.14765
874.953 1.52699
875.038 2.13140
875.122 3.17775
875.207 5.23331
875.249 7.09223
875.291 10.1342
875.333 15.5972
875.354 20.1027
875.376 26.7979
875.397 37.2722
875.418 54.6913
875.439 85.6094
875.460 142.465
875.480 228.069
875.500 284.717
875.520 227.608
875.540 142.456
875.555 99.6145
875.569 71.6466
875.584 53.2105
875.598 40.7391
875.627 25.7335
875.656 17.6058
875.685 12.7407
875.714 9.63598
875.773 6.04303
875.831 4.13388
875.889 3.00260
875.947 2.27843
876.005 1.78814
876.121 1.18427
876.237 0.841761
876.353 0.628736
876.469 0.487535
876.702 0.317626
876.934 0.223333
877.166 0.165619
877.399 0.127751
877.863 0.0827221
878.328 0.0580039
878.793 0.0429889
879.257 0.0331962
880.187 0.0216231
881.116 0.0153113
882.045 0.0114996
882.974 0.00902730
884.833 0.00613428
886.692 0.00459100
890.409 0.00317091
894.126 0.00279082
897.843 0.00338553
899.701 0.00462783
901.560 0.00842313
902.489 0.0138017
903.419 0.0291063
903.883 0.0503123
904.348 0.109781
904.580 0.191028
904.696 0.270999
904.812 0.414439
904.929 0.712315
904.987 0.998973
905.045 1.49977
905.103 2.49933
905.132 3.42186
905.161 4.95498
905.190 7.79847
905.205 10.2064
905.219 13.8903
905.234 19.8900
905.248 30.4609
905.263 50.8879
905.270 68.3408
905.277 93.0847
905.289 148.942
905.300 186.183
905.312 148.943
905.323 93.0861
905.330 68.6296
905.337 51.6865
905.351 31.3625
905.365 20.6601
905.379 14.5141
905.393 10.6881
905.407 8.19389
905.435 5.23751
905.463 3.62258
905.491 2.65411
905.547 1.59659
905.604 1.06441
905.660 0.759836
905.772 0.442713
905.884 0.289629
905.996 0.204269
906.221 0.117443
906.669 0.0537704
907.118 0.0310342
908.016 0.0145687
908.913 0.00873666
910.708 0.00452700
912.503 0.00303402
919.683 0.00157468
926.863 0.00134597
934.043 0.00137554
941.223 0.00162926
944.813 0.00191824
948.403 0.00246252
951.993 0.00364393
953.788 0.00482988
955.583 0.00700602
957.378 0.0116839
958.276 0.0163642
959.173 0.0249321
960.071 0.0432818
960.519 0.0615662
960.968 0.0948636
961.417 0.165609
961.641 0.235459
961.866 0.361306
961.978 0.466115
962.090 0.624260
962.202 0.879117
962.314 1.32901
962.370 1.69574
962.427 2.23769
962.483 3.08660
962.539 4.52474
962.595 7.24746
962.623 9.62529
962.651 13.3494
962.679 19.6760
962.693 24.5741
962.707 31.4399
962.721 41.3835
962.735 56.2884
962.749 79.2948
962.763 114.932
962.782 183.761
962.800 229.592
962.819 183.756
962.837 114.927
962.855 71.2869
962.873 46.7055
962.892 32.3294
962.910 23.5374
962.928 17.7935
962.946 13.9033
962.982 9.11339
963.019 6.41459
963.055 4.75237
963.127 2.90235
963.200 1.95279
963.273 1.40250
963.345 1.05565
963.418 0.823403
963.563 0.540754
963.708 0.382168
963.853 0.284409
963.998 0.219970
964.289 0.142889
964.579 0.100353
965.160 0.0574531
965.740 0.0373362
966.321 0.0263228
967.482 0.0152993
968.644 0.0101673
969.805 0.00737154
972.128 0.00458808
974.451 0.00330244
976.773 0.00260874
981.419 0.00193225
990.709 0.00149113
1000.00 0.00138991
1022.20 0.00149916
1044.40 0.00184747
1066.60 0.00247965
1088.81 0.00366121
1099.91 0.00466305
1111.01 0.00619661
1122.11 0.00871492
1133.21 0.0132837
1138.76 0.0171145
1144.31 0.0229356
1149.86 0.0324135
1155.41 0.0494074
1158.19 0.0634908
1160.96 0.0846354
1163.74 0.118500
1166.51 0.177763
1167.90 0.225678
1169.29 0.295857
1170.67 0.404656
1172.06 0.585983
1173.45 0.921431
1174.14 1.20659
1174.84 1.64272
1175.53 2.35526
1176.22 3.61439
1176.57 4.62265
1176.92 6.05836
1177.26 8.13797
1177.61 11.1268
1178.16 17.7871
1178.70 22.2123
1179.25 17.7660
1179.79 11.1065
1180.23 7.47314
1180.67 5.20359
1181.11 3.76796
1181.55 2.83168
1182.43 1.74523
1183.31 1.17456
1184.19 0.841069
1185.08 0.630741
1186.84 0.391500
1188.60 0.266078
1190.36 0.192509
1192.12 0.145739
1193.88 0.114268
1197.41 0.0760871
1200.93 0.0556293
1204.45 0.0494550
1205.33 0.0544278
1206.21 0.0733766
1206.65 0.101712
1207.09 0.182648
1207.31 0.293454
1207.42 0.402120
1207.53 0.596221
1207.64 0.995330
1207.70 1.37538
1207.75 2.03298
1207.81 3.31963
1207.84 4.50749
1207.86 6.37614
1207.89 9.85018
1207.91 12.7340
1207.92 16.6713
1207.93 23.2353
1207.95 34.1965
1207.96 53.7469
1207.97 88.1415
1207.99 142.220
1208.00 176.556
1208.01 142.219
1208.03 88.1419
1208.04 57.6565
1208.05 38.6392
1208.06 27.2195
1208.07 20.0348
1208.10 12.0206
1208.12 8.08381
1208.15 5.71727
1208.17 4.30183
1208.22 2.66318
1208.26 1.81189
1208.31 1.31466
1208.40 0.787391
1208.50 0.526507
1208.59 0.381372
1208.78 0.232009
1209.16 0.120692
1209.53 0.0802417
1210.29 0.0500458
1211.04 0.0385867
1212.55 0.0290240
1214.06 0.0245216
1220.09 0.0163757
1226.12 0.0123325
1232.15 0.00981243
1238.18 0.00823482
1244.21 0.00763515
1247.23 0.00812802
1250.24 0.0105907
1251.75 0.0144661
1253.26 0.0258553
1254.01 0.0418442
1254.76 0.0870572
1255.14 0.149284
1255.33 0.211073
1255.52 0.322118
1255.71 0.556245
1255.80 0.782950
1255.90 1.18428
1255.94 1.51235
1255.99 1.99855
1256.04 2.76304
1256.08 4.06541
1256.13 6.55281
1256.15 8.79880
1256.18 12.2155
1256.20 18.3550
1256.22 29.5934
1256.24 39.7544
1256.25 55.5624
1256.26 81.1588
1256.27 122.195
1256.29 195.985
1256.30 244.222
1256.31 195.984
1256.33 122.195
1256.34 83.9265
1256.35 60.8288
1256.36 44.2405
1256.37 34.1452
1256.39 21.4291
1256.41 14.8307
1256.43 10.6784
1256.45 8.03923
1256.49 5.06499
1256.54 3.44726
1256.58 2.51326
1256.62 1.90095
1256.66 1.49609
1256.74 0.991589
1256.83 0.705483
1256.99 0.409997
1257.16 0.268405
1257.32 0.189811
1257.66 0.110153
1258.32 0.0519961
1258.98 0.0312598
1260.31 0.0162066
1261.64 0.0108169
1264.30 0.00679798
1266.95 0.00525468
1272.26 0.00392875
1277.57 0.00328084
1288.19 0.00254783
1298.82 0.00209733
1320.06 0.00154084
1341.30 0.00121050
1383.79 0.000869540
1405.04 0.000852197
1415.66 0.00109745
1420.97 0.00200338
1423.62 0.00519287
1424.95 0.0171073
1425.62 0.0624405
1425.78 0.107602
1425.95 0.230363
1426.03 0.391605
1426.11 0.808998
1426.16 1.33267
1426.20 2.53630
1426.22 3.88820
1426.24 6.44267
1426.25 9.00675
1426.26 12.7896
1426.27 19.1079
1426.28 30.1565
1426.29 48.1180
1426.30 60.4080
1426.31 48.1182
1426.32 30.1569
1426.33 22.7541
1426.34 16.8475
1426.35 10.3039
1426.36 6.82379
1426.37 4.81151
1426.40 2.73402
1426.43 1.75208
1426.48 0.891697
1426.53 0.537982
1426.63 0.257294
1426.74 0.150689
1426.95 0.0704644
1427.15 0.0412721
1427.99 0.0126212
1429.65 0.00746053
1431.31 0.0186262
1431.73 0.0313032
1432.15 0.0671297
1432.35 0.116109
1432.56 0.250523
1432.67 0.429039
1432.77 0.898864
1432.82 1.49059
1432.85 2.03201
1432.87 2.92846
1432.90 4.56695
1432.91 5.94288
1432.93 8.02464
1432.94 11.3624
1432.95 17.1084
1432.97 27.8231
1432.98 48.1703
1432.99 77.4639
1433.00 96.2944
1433.01 77.4642
1433.02 48.1708
1433.04 27.8236
1433.05 17.7093
1433.06 11.6983
1433.07 8.43736
1433.09 6.20786
1433.10 4.83960
1433.12 3.11745
1433.15 2.16950
1433.17 1.59468
1433.22 0.964121
1433.32 0.461333
1433.42 0.269633
1433.62 0.124923
1433.82 0.0722146
1434.22 0.0332394
1434.62 0.0193129
1436.22 0.00555200
1439.41 0.00195140
1445.80 0.000969607
1458.58 0.000674956
1484.13 0.000561080
1535.24 0.000507805
1586.35 0.000569659
1611.90 0.000866501
1624.68 0.00194728
1631.07 0.00599993
1632.67 0.0100994
1634.26 0.0216216
1635.06 0.0375130
1635.86 0.0818882
1636.26 0.142568
1636.46 0.202262
1636.66 0.308703
1636.86 0.530187
1636.96 0.743097
1637.06 1.11045
1637.16 1.84569
1637.21 2.52032
1637.26 3.64080
1637.31 5.69840
1637.33 7.43477
1637.36 10.0749
1637.38 14.3372
1637.41 21.7484
1637.43 35.7745
1637.46 62.9168
1637.48 100.291
1637.50 125.858
1637.52 100.289
1637.54 62.9159
1637.56 44.7439
1637.57 32.8394
1637.58 24.7812
1637.60 19.2104
1637.63 12.1921
1637.66 8.45463
1637.68 6.11930
1637.71 4.66587
1637.77 2.93974
1637.83 2.01701
1637.88 1.46812
1638.00 0.879991
1638.11 0.583589
1638.22 0.416318
1638.45 0.241971
1638.68 0.158170
1638.90 0.111574
1639.36 0.0642992
1640.27 0.0298254
1641.17 0.0176498
1642.99 0.00919290
1644.81 0.00688328
1648.44 0.0115388
1649.35 0.0183891
1650.26 0.0382712
1650.71 0.0659035
1651.17 0.143231
1651.39 0.248403
1651.51 0.352003
1651.62 0.535414
1651.73 0.916542
1651.79 1.28123
1651.85 1.90078
1651.90 3.13587
1651.93 4.28204
1651.96 6.09852
1651.99 9.50096
1652.00 12.2312
1652.02 16.2801
1652.03 22.5970
1652.05 33.0631
1652.06 51.5477
1652.07 85.6642
1652.09 138.931
1652.10 171.409
1652.11 138.931
1652.13 85.6645
1652.14 59.2363
1652.15 40.9391
1652.16 29.4776
1652.17 22.5977
1652.19 13.7640
1652.21 9.34183
1652.23 6.63561
1652.26 5.00874
1652.30 3.13618
1652.34 2.12623
1652.38 1.54575
1652.47 0.916640
1652.55 0.605901
1652.64 0.430131
1652.81 0.249007
1653.15 0.114154
1653.49 0.0656545
1654.17 0.0302245
1654.85 0.0176140
1657.57 0.00516810
1663.02 0.00186303
1673.91 0.000919384
1695.69 0.000642837
1739.25 0.000610063
1782.82 0.000697114
1804.60 0.000827901
1815.49 0.00115803
1820.93 0.00235364
1823.66 0.00702755
1825.02 0.0253254
1825.36 0.0439811
1825.70 0.0958072
1825.87 0.165961
1826.04 0.356173
1826.12 0.605111
1826.21 1.24604
1826.25 2.04458
1826.29 3.86526
1826.31 5.95411
1826.34 9.94941
1826.35 13.7616
1826.36 19.2973
1826.37 29.5825
1826.38 46.9218
1826.39 75.6859
1826.40 93.9976
1826.41 75.6861
1826.42 46.9222
1826.43 28.3862
1826.45 18.6176
1826.46 12.9294
1826.47 9.42329
1826.49 5.58322
1826.51 3.66745
1826.56 1.91766
1826.60 1.17313
1826.69 0.568118
1826.78 0.333942
1826.95 0.154855
1827.13 0.0894402
1827.48 0.0410314
1827.83 0.0237057
1829.24 0.00663595
1832.06 0.00229552
1837.70 0.00122111
1848.99 0.00100014
1871.55 0.00107602
1894.11 0.00133667
1905.40 0.00186316
1911.04 0.00360983
1913.86 0.0103282
1915.27 0.0365708
1915.62 0.0632837
1915.97 0.137399
1916.15 0.238413
1916.32 0.511141
1916.41 0.867809
1916.46 1.20525
1916.50 1.78500
1916.54 2.90690
1916.57 3.90766
1916.59 5.52008
1916.61 8.34973
1916.63 13.9397
1916.64 18.9617
1916.65 26.9677
1916.67 40.3738
1916.68 63.8257
1916.69 101.733
1916.70 127.557
1916.71 101.733
1916.72 63.8261
1916.74 37.3718
1916.75 23.5922
1916.76 15.5184
1916.78 11.1401
1916.79 8.17932
1916.80 6.35817
1916.83 4.14409
1916.86 2.87106
1916.88 2.10355
1916.94 1.27685
1916.99 0.850289
1917.04 0.610032
1917.15 0.357798
1917.36 0.165860
1917.58 0.0956788
1918.00 0.0441232
1918.43 0.0256830
1920.13 0.00761038
1923.54 0.00305921
1930.36 0.00199999
1944.00 0.00196680
1957.64 0.00241668
1964.46 0.00349449
1967.87 0.00725569
1969.57 0.0217660
1970.00 0.0365158
1970.42 0.0776922
1970.64 0.133668
1970.85 0.286470
1970.96 0.489600
1971.06 1.01445
1971.12 1.68336
1971.14 2.29579
1971.17 3.26149
1971.20 5.06940
1971.22 8.64485
1971.24 12.2864
1971.25 17.9843
1971.26 28.0541
1971.28 46.6631
1971.29 75.6555
1971.30 93.1672
1971.31 75.6555
1971.32 46.6634
1971.34 27.0466
1971.35 16.8945
1971.37 11.3422
1971.38 8.07124
1971.41 4.63804
1971.44 2.99143
1971.47 2.08382
1971.49 1.53292
1971.55 0.928007
1971.66 0.445108
1971.77 0.260819
1972.00 0.121629
1972.22 0.0707583
1972.67 0.0334036
1973.12 0.0200514
1974.91 0.00699928
1978.49 0.00378267
1985.66 0.00320195
2000.00 0.00366131
2014.25 0.00458222
2028.50 0.00601924
2042.75 0.00835893
2057.00 0.0125337
2064.13 0.0159805
2071.25 0.0211511
2078.38 0.0294408
2085.50 0.0440229
2089.06 0.0559036
2092.63 0.0734806
2096.19 0.101125
2099.75 0.148309
2101.53 0.185581
2103.31 0.239001
2105.09 0.319408
2106.88 0.448277
2108.66 0.673017
2109.55 0.852913
2110.44 1.11224
2111.33 1.50288
2112.22 2.11799
2113.11 3.13338
2114.00 4.83243
2115.00 7.72173
2116.00 9.64169
2117.00 7.71318
2118.00 4.82504
2119.04 2.92068
2120.08 1.87836
2121.12 1.28733
2122.15 0.931128
2123.19 0.702878
2124.23 0.549448
2126.31 0.364004
2128.38 0.261990
2130.46 0.201466
2134.61 0.141853
2138.77 0.129393
2140.84 0.140883
2142.92 0.173229
2145.00 0.251510
2146.04 0.330105
2147.07 0.469163
2148.11 0.746193
2148.63 0.998847
2149.15 1.41485
2149.67 2.16767
2149.93 2.79446
2150.19 3.72866
