La-139(n,tot) ENDF/B-VII.1
Energy(eV) XS(b)
1.00000E-05 465.263
1.25000E-05 417.218
1.50000E-05 381.753
2.00000E-05 331.970
2.75000E-05 284.603
3.50000E-05 253.429
4.25000E-05 230.925
5.00000E-05 213.696
6.25000E-05 192.210
7.50000E-05 176.349
0.000100000 154.086
0.000125000 138.892
0.000150000 127.677
0.000200000 111.935
0.000275000 96.9556
0.000350000 87.0975
0.000425000 79.9807
0.000500000 74.5325
0.000625000 67.7377
0.000750000 62.7220
0.00100000 55.6815
0.00125000 50.8767
0.00150000 47.3299
0.00200000 42.3513
0.00275000 37.6139
0.00350000 34.4960
0.00425000 32.2451
0.00500000 30.5217
0.00625000 28.3724
0.00750000 26.7856
0.0100000 24.5580
0.0125000 23.0375
0.0150000 21.9148
0.0200000 20.3384
0.0253000 19.2077
0.0314750 18.2694
0.0376500 17.5721
0.0500000 16.5869
0.0625000 15.9032
0.0750000 15.3976
0.100000 14.6857
0.125000 14.1977
0.150000 13.8357
0.200000 13.3239
0.275000 12.8305
0.350000 12.5007
0.500000 12.0786
0.605750 11.9221
0.658625 11.9799
0.685063 12.2045
0.698281 12.5013
0.711500 13.1102
0.734000 14.5604
0.756500 13.0921
0.771719 12.3756
0.786938 12.0328
0.817375 11.7413
0.878250 11.5368
1.00000 11.3588
1.25000 11.1299
1.50000 10.9555
2.00000 10.6823
2.75000 10.3687
3.50000 10.1146
5.00000 9.69815
7.50000 9.14458
10.0000 8.68925
15.0000 7.95429
20.0000 7.37345
27.5000 6.68990
35.0000 6.15696
42.5000 5.72296
50.0000 5.35125
55.5641 5.09483
58.3462 4.96598
61.1282 4.83205
63.9103 4.69020
65.3013 4.61884
66.6923 4.55821
67.3878 4.54211
68.0833 4.55102
68.7788 4.61652
69.4744 4.82199
69.8221 5.04351
70.1699 5.43214
70.5176 6.14977
70.8654 7.59225
71.0393 8.88208
71.2131 10.9257
71.3870 14.3833
71.5609 20.7997
71.6478 26.2292
71.7348 34.4861
71.8217 47.8386
71.9087 71.3251
71.9521 90.2963
71.9956 117.988
72.0391 160.512
72.0825 230.299
72.1260 355.617
72.1477 458.704
72.1695 611.128
72.1912 847.883
72.2129 1236.62
72.2347 1913.57
72.2564 3127.31
72.2782 5040.97
72.3000 6350.17
72.3218 5122.55
72.3436 3229.76
72.3571 2391.82
72.3706 1803.14
72.3976 1099.01
72.4246 729.255
72.4516 517.020
72.4787 385.503
72.5057 298.852
72.5597 195.775
72.6137 139.236
72.6677 104.925
72.7757 67.0893
72.8838 47.7070
72.9918 36.4168
73.0998 29.2360
73.2079 24.3683
73.4239 18.3454
73.6400 14.8714
73.8561 12.6671
74.0721 11.1702
74.5043 9.30497
74.9364 8.21341
75.3685 7.50872
75.8007 7.02102
76.6649 6.39569
77.5292 6.01405
78.3934 5.75682
79.2577 5.57079
80.9862 5.31651
82.7148 5.14676
86.1718 4.92358
89.6289 4.77334
93.0859 4.65850
100.000 4.48316
112.500 4.25451
125.000 4.08282
150.000 3.82896
175.000 3.64504
200.000 3.50380
224.090 3.39487
236.135 3.34792
242.158 3.32618
245.169 3.31639
246.674 3.31442
247.051 3.31645
247.427 3.32446
247.615 3.33650
247.804 3.37064
247.898 3.41648
247.945 3.46064
247.992 3.53759
248.039 3.69050
248.062 3.83013
248.086 4.06114
248.109 4.48532
248.121 4.84201
248.133 5.37670
248.145 6.24090
248.156 7.71461
248.168 10.4863
248.180 15.8811
248.190 23.4623
248.200 28.4481
248.210 23.3831
248.220 15.8821
248.231 10.6507
248.242 7.92180
248.254 6.40707
248.265 5.51961
248.276 4.95385
248.287 4.57982
248.309 4.12925
248.332 3.87903
248.354 3.72755
248.398 3.56043
248.443 3.47551
248.487 3.42658
248.576 3.37524
248.754 3.33603
248.932 3.32132
249.288 3.30973
249.645 3.30482
251.069 3.29638
253.918 3.28602
259.615 3.26745
271.010 3.23275
293.800 3.17043
316.590 3.11580
327.985 3.09090
333.683 3.07915
336.531 3.07408
337.956 3.07426
338.312 3.07668
338.668 3.08474
338.846 3.09634
339.024 3.12867
339.113 3.17176
339.202 3.28485
339.246 3.42646
339.269 3.55567
339.291 3.76734
339.313 4.15245
339.324 4.47145
339.335 4.94908
339.347 5.71275
339.358 6.99346
339.369 9.31726
339.380 13.7164
339.390 20.1270
339.400 24.3393
339.410 20.0600
339.420 13.7171
339.430 9.66959
339.440 7.39908
339.450 6.07450
339.459 5.25780
339.479 4.36365
339.499 3.91797
339.518 3.66643
339.538 3.51132
339.577 3.33846
339.655 3.19804
339.734 3.14364
339.891 3.10200
340.047 3.08648
340.361 3.07463
340.675 3.06998
341.929 3.06351
344.438 3.05754
349.456 3.04753
359.493 3.02860
379.565 2.99317
419.710 2.92990
500.000 2.82281
529.339 2.78635
558.678 2.74762
573.347 2.72480
580.682 2.71114
588.017 2.69445
595.351 2.67180
599.019 2.65611
602.686 2.63481
604.520 2.62070
606.353 2.60290
608.187 2.57952
610.021 2.54714
610.938 2.52571
611.854 2.49913
612.771 2.46551
613.688 2.42256
614.147 2.39718
614.605 2.37002
615.063 2.34455
615.522 2.33308
615.751 2.34402
615.980 2.38273
616.209 2.48184
616.439 2.72456
616.553 2.96377
616.668 3.36350
616.782 4.06882
616.897 5.41782
617.012 8.33718
617.069 11.1755
617.126 16.0900
617.183 25.5165
617.212 33.7560
617.241 46.5690
617.269 67.9571
617.298 106.381
617.312 137.858
617.327 182.928
617.341 249.034
617.355 345.759
617.378 565.420
617.400 722.053
617.422 590.985
617.445 379.009
617.466 246.764
617.486 168.460
617.507 121.252
617.528 91.4880
617.569 57.8018
617.611 40.4172
617.652 30.3015
617.694 23.9227
617.777 16.5824
617.860 12.6455
617.943 10.2761
618.026 8.72511
618.109 7.65001
618.275 6.28023
618.441 5.46246
618.607 4.92830
618.773 4.55647
619.106 4.07840
619.438 3.78853
619.770 3.59590
620.102 3.45955
620.766 3.28039
621.431 3.16866
622.095 3.09261
622.759 3.03758
624.088 2.96332
625.417 2.91547
626.745 2.88195
628.074 2.85706
630.731 2.82228
633.388 2.79879
636.046 2.78157
638.703 2.76818
644.018 2.74816
649.332 2.73331
659.961 2.71124
670.590 2.69420
681.219 2.67975
691.848 2.66754
694.506 2.66546
697.163 2.66548
698.491 2.66833
699.820 2.67928
700.484 2.69587
700.817 2.71281
701.149 2.74405
701.481 2.81107
701.647 2.87765
701.813 2.99819
701.896 3.09910
701.979 3.25178
702.062 3.49941
702.145 3.93925
702.187 4.30134
702.228 4.83910
702.270 5.68941
702.311 7.14953
702.353 9.97255
702.374 12.4958
702.394 16.5371
702.415 23.6535
702.436 37.6037
702.446 50.1547
702.457 70.1183
702.467 103.425
702.477 159.329
702.489 253.592
702.500 316.543
702.511 253.598
702.523 159.337
702.533 102.203
702.544 68.9228
702.555 49.1301
702.565 36.8487
702.586 23.1152
702.607 16.1719
702.628 12.2185
702.650 9.76613
702.692 7.01826
702.734 5.59642
702.776 4.77148
702.818 4.24993
702.861 3.89951
702.945 3.47235
703.030 3.23242
703.114 3.08408
703.198 2.98622
703.367 2.86896
703.536 2.80407
703.874 2.73837
704.212 2.70732
704.550 2.69013
705.225 2.67253
706.576 2.65886
707.927 2.65307
710.629 2.64697
713.331 2.64290
724.140 2.63004
745.757 2.60660
788.991 2.55929
810.609 2.53351
832.226 2.50374
843.034 2.48529
848.439 2.47410
853.843 2.46040
859.247 2.44190
861.949 2.42921
864.651 2.41215
866.003 2.40094
867.354 2.38691
868.705 2.36862
870.056 2.34356
871.407 2.30698
872.082 2.28186
872.758 2.25056
873.433 2.21459
873.771 2.19981
874.109 2.20010
874.278 2.21629
874.447 2.25790
874.616 2.35322
874.784 2.57285
874.869 2.78311
874.953 3.12752
875.038 3.72486
875.122 4.84342
875.207 7.20806
875.249 9.45274
875.291 13.2507
875.333 20.2983
875.354 26.2451
875.376 35.2257
875.397 49.5065
875.418 73.6577
875.439 117.297
875.460 199.206
875.480 326.041
875.500 417.115
875.520 342.547
875.540 220.676
875.555 157.789
875.569 116.136
875.584 88.3382
875.598 69.3237
875.627 46.1077
875.656 33.2857
875.685 25.4677
875.714 20.3891
875.773 14.3682
875.831 11.0611
875.889 9.03817
875.947 7.70301
876.005 6.77194
876.121 5.57775
876.237 4.86246
876.353 4.39404
876.469 4.06797
876.702 3.64898
876.934 3.39550
877.166 3.22752
877.399 3.10888
877.863 2.95353
878.328 2.85705
878.793 2.79159
879.257 2.74436
880.187 2.68082
881.116 2.63998
882.045 2.61142
882.974 2.59023
884.833 2.56059
886.692 2.54051
890.409 2.51417
894.126 2.49684
897.843 2.48448
899.701 2.48024
901.560 2.47935
902.489 2.48303
903.419 2.49820
903.883 2.52140
904.348 2.58864
904.580 2.68152
904.696 2.77322
904.812 2.93793
904.929 3.28026
904.987 3.60982
905.045 4.18567
905.103 5.33512
905.132 6.39605
905.161 8.15919
905.190 11.4293
905.205 14.1985
905.219 18.4351
905.234 25.3350
905.248 37.4917
905.263 60.9830
905.270 81.0540
905.277 109.510
905.289 173.745
905.300 216.570
905.312 173.742
905.323 109.507
905.330 81.3817
905.337 61.8973
905.351 38.5250
905.365 26.2175
905.379 19.1497
905.393 14.7499
905.407 11.8817
905.435 8.48197
905.463 6.62485
905.491 5.51113
905.547 4.29496
905.604 3.68289
905.660 3.33254
905.772 2.96764
905.884 2.79136
905.996 2.69295
906.221 2.59259
906.669 2.51831
907.118 2.49110
908.016 2.47006
908.913 2.46126
910.708 2.45231
912.503 2.44656
919.683 2.42921
926.863 2.41324
934.043 2.39653
941.223 2.37745
944.813 2.36604
948.403 2.35219
951.993 2.33367
953.788 2.32109
955.583 2.30437
957.378 2.28014
958.276 2.26305
959.173 2.24043
960.071 2.20959
960.519 2.19052
960.968 2.17069
961.417 2.15986
961.641 2.17035
961.866 2.21646
961.978 2.27081
962.090 2.36978
962.202 2.55660
962.314 2.93476
962.370 3.27092
962.427 3.79677
962.483 4.66611
962.539 6.21668
962.595 9.30100
962.623 12.0867
962.651 16.5532
962.679 24.3202
962.693 30.4348
962.707 39.1076
962.721 51.8213
962.735 71.1204
962.749 101.317
962.763 148.824
962.782 242.947
962.800 310.962
962.819 255.766
962.837 164.860
962.855 105.605
962.873 71.5999
962.892 51.3989
962.910 38.8674
962.928 30.5702
962.946 24.8782
962.982 17.7455
963.019 13.6296
963.055 11.0355
963.127 8.05684
963.200 6.46123
963.273 5.49815
963.345 4.86702
963.418 4.42834
963.563 3.86665
963.708 3.52941
963.853 3.30791
963.998 3.15293
964.289 2.95227
964.579 2.82952
965.160 2.68866
965.740 2.61082
966.321 2.56160
967.482 2.50273
968.644 2.46839
969.805 2.44555
972.128 2.41620
974.451 2.39722
976.773 2.38321
981.419 2.36231
990.709 2.33153
1000.00 2.30528
1022.20 2.24345
1044.40 2.17299
1066.60 2.08584
1088.81 1.97178
1099.91 1.90004
1111.01 1.81540
1122.11 1.71627
1133.21 1.60697
1138.76 1.55633
1144.31 1.52289
1149.86 1.53898
1155.41 1.69408
1158.19 1.89634
1160.96 2.27794
1163.74 3.01409
1166.51 4.52178
1167.90 5.86672
1169.29 7.96649
1170.67 11.4242
1172.06 17.5263
1173.45 29.4511
1174.14 39.9736
1174.84 56.4899
1175.53 84.1825
1176.22 134.420
1176.57 175.426
1176.92 234.652
1177.26 321.757
1177.61 449.131
1178.16 741.977
1178.70 957.836
1179.25 792.132
1179.79 512.119
1180.23 354.108
1180.67 253.379
1181.11 188.559
1181.55 145.624
1182.43 94.7841
1183.31 67.3495
1184.19 50.9034
1185.08 40.2746
1186.84 27.7774
1188.60 20.9228
1190.36 16.7245
1192.12 13.9416
1193.88 11.9900
1197.41 9.47266
1200.93 7.94854
1204.45 6.94916
1205.33 6.75908
1206.21 6.60348
1206.65 6.55578
1207.09 6.58114
1207.31 6.68802
1207.42 6.81220
1207.53 7.04956
1207.64 7.55826
1207.70 8.05143
1207.75 8.91177
1207.81 10.6042
1207.84 12.1707
1207.86 14.6379
1207.89 19.2286
1207.91 23.0409
1207.92 28.2471
1207.93 36.9277
1207.95 51.4251
1207.96 77.2848
1207.97 122.781
1207.99 194.318
1208.00 239.739
1208.01 194.317
1208.03 122.778
1208.04 82.4485
1208.05 57.2890
1208.06 42.1801
1208.07 32.6734
1208.10 22.0675
1208.12 16.8556
1208.15 13.7209
1208.17 11.8445
1208.22 9.66885
1208.26 8.53485
1208.31 7.86930
1208.40 7.15635
1208.50 6.79580
1208.59 6.58867
1208.78 6.36119
1209.16 6.15543
1209.53 6.04522
1210.29 5.89695
1211.04 5.77972
1212.55 5.57971
1214.06 5.40603
1220.09 4.86991
1226.12 4.49620
1232.15 4.22118
1238.18 4.01073
1244.21 3.84528
1247.23 3.77594
1250.24 3.71604
1251.75 3.69200
1253.26 3.67991
1254.01 3.68885
1254.76 3.73931
1255.14 3.82054
1255.33 3.90445
1255.52 4.05788
1255.71 4.38498
1255.80 4.70324
1255.90 5.26790
1255.94 5.73000
1255.99 6.41522
1256.04 7.49312
1256.08 9.32999
1256.13 12.8390
1256.15 16.0078
1256.18 20.8286
1256.20 29.4914
1256.22 45.3493
1256.24 59.6871
1256.25 81.9935
1256.26 118.112
1256.27 176.018
1256.29 280.144
1256.30 348.215
1256.31 280.147
1256.33 176.024
1256.34 122.022
1256.35 89.4282
1256.36 66.0198
1256.37 51.7738
1256.39 33.8293
1256.41 24.5176
1256.43 18.6577
1256.45 14.9331
1256.49 10.7352
1256.54 8.45155
1256.58 7.13280
1256.62 6.26799
1256.66 5.69595
1256.74 4.98259
1256.83 4.57744
1256.99 4.15768
1257.16 3.95512
1257.32 3.84149
1257.66 3.72368
1258.32 3.63101
1258.98 3.59135
1260.31 3.54989
1261.64 3.52280
1264.30 3.48012
1266.95 3.44338
1272.26 3.37872
1277.57 3.32223
1288.19 3.22708
1298.82 3.14956
1320.06 3.02987
1341.30 2.94069
1383.79 2.81325
1405.04 2.76477
1415.66 2.74328
1420.97 2.73388
1423.62 2.73226
1424.95 2.74267
1425.62 2.79065
1425.78 2.83942
1425.95 2.97257
1426.03 3.14776
1426.11 3.60160
1426.16 4.17120
1426.20 5.48064
1426.22 6.95153
1426.24 9.73105
1426.25 12.5212
1426.26 16.6375
1426.27 23.5132
1426.28 35.5371
1426.29 55.0849
1426.30 68.4629
1426.31 55.0908
1426.32 35.5444
1426.33 27.4880
1426.34 21.0596
1426.35 13.9378
1426.36 10.1500
1426.37 7.95971
1426.40 5.69832
1426.43 4.62936
1426.48 3.69258
1426.53 3.30735
1426.63 3.00149
1426.74 2.88517
1426.95 2.79736
1427.15 2.76515
1427.99 2.73235
1429.65 2.72366
1431.31 2.73302
1431.73 2.74636
1432.15 2.78547
1432.35 2.83963
1432.56 2.98900
1432.67 3.18776
1432.77 3.71132
1432.82 4.37100
1432.85 4.97468
1432.87 5.97433
1432.90 7.80159
1432.91 9.33615
1432.93 11.6580
1432.94 15.3809
1432.95 21.7901
1432.97 33.7420
1432.98 56.4398
1432.99 89.1197
1433.00 110.131
1433.01 89.1298
1433.02 56.4527
1433.04 33.7537
1433.05 22.4698
1433.06 15.7634
1433.07 12.1251
1433.09 9.63746
1433.10 8.11073
1433.12 6.18903
1433.15 5.13114
1433.17 4.48959
1433.22 3.78573
1433.32 3.22428
1433.42 3.01005
1433.62 2.84805
1433.82 2.78879
1434.22 2.74448
1434.62 2.72818
1436.22 2.70990
1439.41 2.70023
1445.80 2.68814
1458.58 2.66677
1484.13 2.62761
1535.24 2.55770
1586.35 2.49381
1611.90 2.46319
1624.68 2.44976
1631.07 2.45025
1632.67 2.45675
1634.26 2.47866
1635.06 2.51065
1635.86 2.60183
1636.26 2.72744
1636.46 2.85126
1636.66 3.07229
1636.86 3.53253
1636.96 3.97510
1637.06 4.73886
1637.16 6.26769
1637.21 7.67060
1637.26 10.0008
1637.31 14.2800
1637.33 17.8913
1637.36 23.3824
1637.38 32.2473
1637.41 47.6618
1637.43 76.8351
1637.46 133.290
1637.48 211.031
1637.50 264.214
1637.52 211.037
1637.54 133.301
1637.56 95.5031
1637.57 70.7411
1637.58 53.9795
1637.60 42.3917
1637.63 27.7929
1637.66 20.0183
1637.68 15.1603
1637.71 12.1368
1637.77 8.54594
1637.83 6.62626
1637.88 5.48427
1638.00 4.26051
1638.11 3.64366
1638.22 3.29545
1638.45 2.93234
1638.68 2.75764
1638.90 2.66035
1639.36 2.56133
1640.27 2.48832
1641.17 2.46171
1642.99 2.44149
1644.81 2.43378
1648.44 2.43375
1649.35 2.44155
1650.26 2.46683
1650.71 2.50319
1651.17 2.60621
1651.39 2.74699
1651.51 2.88587
1651.62 3.13194
1651.73 3.64361
1651.79 4.13338
1651.85 4.96563
1651.90 6.62507
1651.93 8.16524
1651.96 10.6064
1651.99 15.1792
1652.00 18.8489
1652.02 24.2911
1652.03 32.7823
1652.05 46.8516
1652.06 71.7009
1652.07 117.567
1652.09 189.185
1652.10 232.864
1652.11 189.211
1652.13 117.602
1652.14 82.0694
1652.15 57.4682
1652.16 42.0572
1652.17 32.8061
1652.19 20.9274
1652.21 14.9805
1652.23 11.3410
1652.26 9.15284
1652.30 6.63406
1652.34 5.27540
1652.38 4.49436
1652.47 3.64771
1652.55 3.22936
1652.64 2.99262
1652.81 2.74848
1653.15 2.56630
1653.49 2.50043
1654.17 2.45169
1654.85 2.43373
1657.57 2.41331
1663.02 2.40183
1673.91 2.38668
1695.69 2.35822
1739.25 2.29892
1782.82 2.23332
1804.60 2.19718
1815.49 2.17831
1820.93 2.16972
1823.66 2.16991
1825.02 2.18785
1825.36 2.20809
1825.70 2.26544
1825.87 2.34360
1826.04 2.55603
1826.12 2.83429
1826.21 3.55092
1826.25 4.44386
1826.29 6.47981
1826.31 8.81563
1826.34 13.2833
1826.35 17.5461
1826.36 23.7362
1826.37 35.2371
1826.38 54.6256
1826.39 86.7888
1826.40 107.263
1826.41 86.7863
1826.42 54.6227
1826.43 33.8962
1826.45 22.9733
1826.46 16.6130
1826.47 12.6927
1826.49 8.39898
1826.51 6.25690
1826.56 4.30041
1826.60 3.46791
1826.69 2.79134
1826.78 2.52938
1826.95 2.32886
1827.13 2.25541
1827.48 2.20065
1827.83 2.18062
1829.24 2.15888
1832.06 2.14863
1837.70 2.13640
1848.99 2.11324
1871.55 2.06355
1894.11 2.00762
1905.40 1.97713
1911.04 1.96276
1913.86 1.96225
1915.27 1.98911
1915.62 2.01976
1915.97 2.10680
1916.15 2.22640
1916.32 2.55037
1916.41 2.97458
1916.46 3.37610
1916.50 4.06610
1916.54 5.40158
1916.57 6.59300
1916.59 8.51274
1916.61 11.8819
1916.63 18.5381
1916.64 24.5182
1916.65 34.0518
1916.67 50.0163
1916.68 77.9450
1916.69 123.090
1916.70 153.850
1916.71 123.102
1916.72 77.9596
1916.74 46.4542
1916.75 30.0430
1916.76 20.4268
1916.78 15.2121
1916.79 11.6855
1916.80 9.51618
1916.83 6.87876
1916.86 5.36220
1916.88 4.44779
1916.94 3.46270
1916.99 2.95427
1917.04 2.66781
1917.15 2.36686
1917.36 2.13738
1917.58 2.05302
1918.00 1.99017
1918.43 1.96682
1920.13 1.93984
1923.54 1.92348
1930.36 1.89956
1944.00 1.85058
1957.64 1.79643
1964.46 1.76786
1967.87 1.75685
1969.57 1.76684
1970.00 1.78315
1970.42 1.83236
1970.64 1.90104
1970.85 2.09036
1970.96 2.34297
1971.06 2.99663
1971.12 3.83023
1971.14 4.59361
1971.17 5.79749
1971.20 8.05155
1971.22 12.5097
1971.24 17.0506
1971.25 24.1559
1971.26 36.7135
1971.28 59.9211
1971.29 96.0800
1971.30 117.924
1971.31 96.0897
1971.32 59.9336
1971.34 35.4680
1971.35 22.8061
1971.37 15.8807
1971.38 11.8007
1971.41 7.51811
1971.44 5.46390
1971.47 4.33148
1971.49 3.64404
1971.55 2.88901
1971.66 2.28584
1971.77 2.05526
1972.00 1.88038
1972.22 1.81574
1972.67 1.76686
1973.12 1.74796
1974.91 1.72273
1978.49 1.70047
1985.66 1.66129
2000.00 1.57569
2014.25 1.47629
2028.50 1.35898
2042.75 1.22082
2057.00 1.06464
2064.13 0.987415
2071.25 0.925680
2078.38 0.913083
2085.50 1.04244
2089.06 1.23478
2092.63 1.60942
2096.19 2.33991
2099.75 3.82722
2101.53 5.13652
2103.31 7.14774
2105.09 10.3777
2106.88 15.8802
2108.66 26.0494
2109.55 34.5190
2110.44 47.0681
2111.33 66.4972
2112.22 97.9581
2113.11 151.441
2114.00 243.947
2115.00 409.074
2116.00 535.606
2117.00 448.872
2118.00 293.846
2119.04 186.228
2120.08 125.208
2121.12 89.5668
2122.15 67.4933
2123.19 52.9738
2124.23 42.9569
2126.31 30.3799
2128.38 23.0366
2130.46 18.3427
2134.61 12.8150
2138.77 9.74870
2140.84 8.72927
2142.92 8.02169
2145.00 7.81853
2146.04 8.13357
2147.07 9.11953
2148.11 11.7408
2148.63 14.4822
2149.15 19.3651
2149.67 28.8324
2149.93 37.0742
2150.19 49.7320
2150.45 70.3948
2150.71 106.096
2150.97 172.896
2151.23 302.587
2151.46 500.785
2151.70 650.262
2151.94 542.568
2152.17 354.811
2152.36 248.836
2152.55 180.569
2152.74 136.435
2152.93 106.962
2153.31 71.8599
2153.69 52.7710
2154.07 41.2134
2154.45 33.6854
2155.21 24.7391
2155.97 19.7440
2156.73 16.6305
2158.25 13.0176
2159.77 11.0059
2161.29 9.72624
2164.32 8.17363
2167.36 7.24589
2170.40 6.61555
2171.92 6.36918
2173.44 6.16074
2174.20 6.07466
2174.95 6.01840
2175.33 6.02485
2175.71 6.12348
2175.90 6.29455
2176.09 6.79399
2176.19 7.46248
2176.24 8.10654
2176.28 9.19036
2176.33 11.3309
2176.36 13.2465
2176.38 16.1759
2176.40 21.4783
2176.43 31.2921
2176.44 40.2676
2176.45 54.3990
2176.46 77.6482
2176.47 115.648
2176.49 179.646
2176.50 225.851
2176.51 179.670
2176.53 115.675
2176.54 75.2422
2176.55 52.9607
2176.57 38.4990
2176.58 30.1339
2176.60 20.3470
2176.63 15.3964
2176.65 12.5764
2176.68 10.8261
2176.73 8.86279
2176.78 7.84624
2176.83 7.25258
2176.93 6.62036
2177.13 6.12432
