Gd-158(n,g) ENDF/B-VII.1
Energy(eV) XS(b)
1.00000E-05 110.658
1.25000E-05 98.9759
1.50000E-05 90.3522
2.00000E-05 78.2473
2.75000E-05 66.7296
3.50000E-05 59.1495
4.25000E-05 53.6773
5.00000E-05 49.4880
6.25000E-05 44.2634
7.50000E-05 40.4068
0.000100000 34.9934
0.000125000 31.2991
0.000150000 28.5720
0.000200000 24.7441
0.000275000 21.1019
0.000350000 18.7049
0.000425000 16.9745
0.000500000 15.6497
0.000625000 13.9976
0.000750000 12.7781
0.00100000 11.0662
0.00125000 9.89803
0.00150000 9.03571
0.00200000 7.82529
0.00275000 6.67361
0.00350000 5.91569
0.00425000 5.36854
0.00500000 4.94969
0.00625000 4.42733
0.00750000 4.04177
0.0100000 3.50059
0.0125000 3.13130
0.0150000 2.85874
0.0200000 2.47619
0.0253000 2.20202
0.0314750 1.97468
0.0376500 1.80590
0.0500000 1.56778
0.0625000 1.40291
0.0750000 1.28126
0.100000 1.11062
0.125000 0.994276
0.150000 0.908483
0.200000 0.788228
0.275000 0.674092
0.350000 0.599217
0.500000 0.504244
0.750000 0.415814
1.00000 0.363826
1.50000 0.303579
2.00000 0.269097
2.75000 0.238377
3.50000 0.220355
5.00000 0.203135
7.50000 0.203998
10.0000 0.233576
12.5000 0.305321
13.7500 0.370699
15.0000 0.473946
16.2500 0.648173
17.5000 0.974380
18.1250 1.25612
18.7500 1.69722
19.3750 2.44615
20.0000 3.87672
20.2811 4.98779
20.5622 6.67493
20.8432 9.42069
21.1243 14.3439
21.2648 18.4244
21.4054 24.5578
21.5459 34.3956
21.6865 51.6532
21.7216 58.0193
21.7567 65.6402
21.7743 70.0290
21.7919 74.8737
21.8094 80.2396
21.8270 86.2005
21.8446 92.8552
21.8621 100.311
21.8797 108.701
21.8973 118.182
21.9148 128.963
21.9324 141.284
21.9675 171.843
22.0027 213.436
22.0378 271.979
22.0729 357.963
22.1081 491.024
22.1432 711.458
22.1608 879.111
22.1783 1109.55
22.1959 1435.53
22.2135 1909.14
22.2310 2613.17
22.2486 3656.97
22.2743 5847.77
22.3000 7305.48
22.3257 5841.00
22.3514 3648.52
22.3784 2191.89
22.4054 1400.07
22.4324 953.882
22.4594 685.568
22.4864 514.066
22.5134 398.665
22.5674 258.767
22.6214 180.898
22.6754 133.335
22.7834 80.8213
22.8914 54.0772
22.9994 38.6644
23.1074 28.9895
23.2154 22.5255
23.4314 14.7012
23.6474 10.3312
23.8634 7.64742
24.0794 5.88352
24.5115 3.78448
24.9435 2.63248
25.3755 1.93398
25.8075 1.47936
26.6715 0.944147
27.5355 0.653847
28.3995 0.479417
29.2636 0.366716
30.9916 0.235123
32.7196 0.164378
34.4477 0.122135
36.1757 0.0949535
39.6318 0.0633015
43.0879 0.0462731
50.0000 0.0294281
56.2500 0.0221649
62.5000 0.0180126
75.0000 0.0139039
87.5000 0.0136758
90.6250 0.0151630
93.7500 0.0195221
95.3125 0.0249996
96.8750 0.0377810
97.6563 0.0516482
98.4375 0.0794596
98.8281 0.105266
99.2188 0.148737
99.6094 0.230630
99.8047 0.301906
100.000 0.414312
100.132 0.531603
100.264 0.708482
100.396 0.993334
100.528 1.49573
100.594 1.90492
100.660 2.50917
100.726 3.45472
100.792 5.05442
100.858 8.07680
100.891 10.7049
100.924 14.8264
100.957 21.7791
100.990 34.6880
101.007 45.5505
101.023 61.7577
101.040 86.6169
101.056 124.804
101.067 159.310
101.078 198.517
101.100 247.179
101.122 198.482
101.144 124.756
101.168 73.6179
101.192 46.4773
101.217 31.3697
101.241 22.4298
101.265 16.7399
101.289 12.9512
101.337 8.38251
101.385 5.84827
101.434 4.30665
101.530 2.61187
101.627 1.75027
101.723 1.25490
101.820 0.943831
101.916 0.736270
102.110 0.484848
102.303 0.344310
102.496 0.257909
102.689 0.201064
103.075 0.133228
103.461 0.0958763
103.847 0.0731371
104.233 0.0582826
105.006 0.0406903
105.778 0.0310653
107.323 0.0214234
108.867 0.0169165
110.412 0.0144426
113.501 0.0119396
119.680 0.0100816
125.858 0.00941009
150.572 0.00923397
175.286 0.0110462
187.643 0.0131818
200.000 0.0173361
210.655 0.0251073
215.982 0.0326928
221.310 0.0463649
223.973 0.0578253
226.637 0.0753098
229.301 0.104024
231.964 0.156347
233.296 0.200494
234.628 0.268078
235.960 0.379328
237.292 0.582117
237.958 0.753021
238.624 1.01406
239.290 1.44206
239.955 2.21724
240.288 2.86596
240.621 3.84949
240.954 5.44630
241.121 6.64726
241.162 7.00955
241.204 7.40235
241.246 7.82917
241.287 8.29406
241.329 8.80294
241.371 9.35879
241.412 9.96904
241.454 10.6410
241.495 11.3853
241.537 12.2083
241.620 14.1466
241.704 16.5890
241.787 19.7181
241.870 23.8220
241.953 29.3500
242.036 37.0534
242.120 48.2029
242.203 65.2322
242.286 92.9842
242.328 113.959
242.369 142.668
242.411 183.412
242.453 243.674
242.494 337.342
242.536 491.702
242.577 762.120
242.619 1250.71
242.660 1994.42
242.700 2490.71
242.741 1990.71
242.782 1240.01
242.816 828.331
242.849 573.190
242.883 413.463
242.916 309.927
242.983 190.352
243.051 127.789
243.118 91.3443
243.185 68.4422
243.319 42.4202
243.453 28.7955
243.588 20.8090
243.722 15.7285
243.856 12.3043
244.125 8.11585
244.393 5.75129
244.662 4.28763
244.930 3.31943
245.467 2.15890
246.004 1.51658
246.541 1.12441
247.078 0.867649
248.152 0.563074
249.226 0.396403
250.300 0.295521
251.374 0.229989
253.522 0.153177
255.670 0.112081
257.817 0.0881739
259.965 0.0738260
264.261 0.0622534
266.409 0.0639242
268.557 0.0731811
270.705 0.0989149
271.779 0.126506
272.853 0.178162
273.390 0.222233
273.927 0.289996
274.464 0.401728
275.001 0.605173
275.269 0.776177
275.538 1.03652
275.806 1.46118
276.075 2.22407
276.209 2.85727
276.343 3.80865
276.477 5.33572
276.612 8.01076
276.746 13.3589
276.813 18.2927
276.847 21.8537
276.880 26.5408
276.897 29.4755
276.914 32.9200
276.931 36.9981
276.947 41.8411
276.964 47.7237
276.981 54.9151
276.998 63.8247
277.014 74.9547
277.031 89.2653
277.048 107.921
277.065 132.767
277.081 166.421
277.098 213.739
277.115 281.616
277.132 380.816
277.149 524.287
277.174 839.582
277.200 1049.23
277.213 987.600
277.226 839.186
277.252 524.959
277.268 382.688
277.285 284.336
277.317 169.398
277.350 110.286
277.383 76.8699
277.416 56.3592
277.449 43.0269
277.515 27.3484
277.581 18.8623
277.647 13.7862
277.778 8.27398
277.910 5.51101
278.042 3.93374
278.173 2.94985
278.305 2.29570
278.568 1.50631
278.832 1.06678
279.095 0.797247
279.359 0.620205
279.885 0.409300
280.412 0.293312
280.939 0.222747
281.466 0.176654
282.519 0.122067
283.573 0.0922039
285.680 0.0623557
287.787 0.0485736
289.894 0.0412481
294.107 0.0346522
302.535 0.0333997
310.963 0.0403868
319.391 0.0591790
323.605 0.0785239
327.819 0.113988
329.926 0.143927
332.033 0.189736
334.140 0.265071
336.247 0.402272
337.301 0.517825
338.354 0.694294
339.408 0.983602
340.461 1.50761
340.988 1.94619
341.120 2.08618
341.251 2.24199
341.383 2.41611
341.515 2.61136
341.646 2.83166
341.778 3.08129
341.910 3.36568
342.041 3.69162
342.173 4.06760
342.305 4.50440
342.437 5.01591
342.568 5.61964
342.700 6.34033
342.832 7.20956
342.963 8.27106
343.095 9.58594
343.227 11.2416
343.358 13.3665
343.490 16.1556
343.622 19.9133
343.753 25.1523
343.885 32.7551
344.017 44.3754
344.148 63.3693
344.280 97.4908
344.346 125.652
344.412 167.429
344.478 232.885
344.543 341.571
344.609 534.453
344.675 889.401
344.738 1424.25
344.800 1786.85
344.863 1434.73
344.925 897.464
344.988 552.038
345.050 358.589
345.113 247.157
345.175 179.102
345.238 135.117
345.300 105.278
345.425 68.8016
345.550 48.3301
345.675 35.7552
345.925 21.7990
346.175 14.6495
346.425 10.5144
346.675 7.90993
346.925 6.16628
347.425 4.04888
347.925 2.86241
348.425 2.13165
348.924 1.65006
349.924 1.07504
350.924 0.758178
351.924 0.565380
352.924 0.439538
354.923 0.291004
356.923 0.210422
358.923 0.162266
360.922 0.131585
364.922 0.0973473
368.921 0.0815880
376.920 0.0767817
380.919 0.0844927
384.918 0.100784
388.918 0.131137
392.917 0.189534
394.917 0.239707
396.916 0.316991
398.916 0.444516
400.915 0.676778
401.915 0.871987
402.915 1.16915
403.415 1.37970
403.665 1.50739
403.915 1.65388
404.165 1.82319
404.415 2.02015
404.665 2.25132
404.915 2.52488
405.040 2.68097
405.165 2.85212
405.415 3.24790
405.665 3.73278
405.915 4.33536
406.165 5.09766
406.415 6.08062
406.665 7.37939
406.914 9.14337
407.164 11.6260
407.414 15.2727
407.664 20.9438
407.914 30.4441
408.039 37.7999
408.164 48.1429
408.289 63.3028
408.414 86.6883
408.539 125.301
408.664 194.668
408.727 251.143
408.789 332.826
408.852 453.448
408.914 630.926
409.007 1010.25
409.100 1267.09
409.193 1017.12
409.286 636.190
409.375 400.006
409.463 264.094
409.552 184.107
409.640 134.493
409.729 102.065
409.818 79.8806
409.995 52.5295
410.172 37.0506
410.349 27.4890
410.704 16.8207
411.058 11.3298
411.412 8.14389
411.767 6.13323
412.121 4.78488
412.830 3.14526
413.538 2.22481
414.247 1.65727
414.956 1.28291
416.373 0.835513
417.791 0.588629
419.208 0.438213
420.625 0.339885
423.460 0.223507
426.295 0.160005
429.130 0.121725
431.965 0.0970045
437.634 0.0684786
443.304 0.0539180
454.643 0.0431502
465.982 0.0468669
471.652 0.0551824
477.322 0.0716948
482.991 0.105826
485.826 0.137183
488.661 0.188789
491.496 0.282178
492.913 0.360069
494.330 0.477732
495.748 0.667622
497.165 1.00360
497.874 1.27820
498.228 1.46053
498.583 1.68528
498.760 1.81787
498.937 1.96688
499.114 2.13515
499.291 2.32602
499.469 2.54399
499.646 2.79430
499.823 3.08366
500.000 3.42043
500.195 3.85854
500.389 4.38687
500.584 5.03196
500.778 5.83042
500.973 6.83603
501.167 8.12551
501.362 9.81825
501.557 12.0984
501.751 15.2749
501.946 19.8813
502.140 26.9145
502.335 38.3980
502.529 58.9793
502.627 75.9120
502.724 100.983
502.821 140.110
502.919 204.887
503.016 319.149
503.113 527.350
503.207 843.083
503.300 1056.38
503.394 848.936
503.487 531.864
503.570 345.040
503.653 233.340
503.736 165.406
503.819 122.333
503.985 73.8172
504.151 49.0113
504.317 34.7900
504.482 25.9281
504.814 15.9594
505.146 10.7891
505.478 7.77447
505.809 5.86540
506.141 4.58200
506.805 3.01732
507.468 2.13668
508.132 1.59270
508.795 1.23341
510.122 0.803400
511.449 0.565757
512.776 0.420799
514.103 0.325938
516.757 0.213487
519.411 0.151964
522.065 0.114727
524.719 0.0905314
530.027 0.0621704
535.335 0.0470182
545.951 0.0330832
556.567 0.0293519
561.875 0.0305018
567.183 0.0348350
572.492 0.0461618
575.146 0.0580960
577.800 0.0803070
579.127 0.0992181
580.454 0.128293
581.781 0.176291
583.108 0.263961
583.771 0.337900
584.435 0.450888
585.098 0.636172
585.762 0.971691
586.093 1.25237
586.425 1.67770
586.757 2.36770
587.089 3.59674
587.254 4.60831
587.420 6.11722
587.503 7.16721
587.545 7.79666
587.586 8.51095
587.628 9.33014
587.669 10.2710
587.711 11.3642
587.752 12.6379
587.794 14.1416
587.835 15.9295
587.877 18.0773
587.918 20.6810
587.959 23.8945
588.001 27.9123
588.042 33.0232
588.084 39.6382
588.125 48.4454
588.167 60.4755
588.208 77.4600
588.250 102.335
588.291 140.716
588.333 202.966
588.374 310.295
588.416 499.433
588.458 799.899
588.500 1001.65
588.542 802.747
588.585 502.223
588.610 373.145
588.635 281.759
588.686 171.713
588.737 113.332
588.788 79.7636
588.838 58.8982
588.889 45.1873
588.990 28.9126
589.092 20.0282
589.193 14.6792
589.396 8.84066
589.599 5.89934
589.802 4.21489
590.005 3.16184
590.208 2.46016
590.614 1.61263
591.020 1.14013
591.425 0.850081
591.831 0.659370
592.643 0.432142
593.454 0.307151
594.266 0.231142
595.078 0.181529
596.701 0.122877
598.324 0.0909041
601.571 0.0591637
604.818 0.0446915
608.064 0.0371134
614.557 0.0304489
627.544 0.0293468
640.530 0.0363534
653.516 0.0549804
660.009 0.0741606
666.502 0.109329
669.749 0.138981
672.996 0.184245
676.242 0.258362
679.489 0.392336
680.300 0.442911
681.112 0.504237
681.518 0.539924
681.924 0.579616
682.330 0.623947
682.735 0.673669
683.141 0.729709
683.547 0.793152
683.953 0.865380
684.359 0.948092
684.765 1.04345
685.170 1.15410
685.576 1.28353
685.982 1.43626
686.794 1.83738
687.605 2.43483
688.417 3.38107
688.823 4.07608
689.229 5.00961
689.634 6.30440
690.040 8.17131
690.446 11.0011
690.852 15.5775
691.258 23.6539
691.461 30.1978
691.663 39.7549
691.866 54.3633
692.069 77.8939
692.272 117.859
692.475 187.415
692.688 300.314
692.900 377.848
693.113 304.268
693.325 190.460
693.475 134.669
693.624 97.5001
693.774 72.7651
693.923 55.9126
694.222 35.5406
694.521 24.3861
694.820 17.6980
695.119 13.4009
695.717 8.42390
696.315 5.77139
696.913 4.19718
697.511 3.18830
698.109 2.50373
699.304 1.66158
700.500 1.18335
701.696 0.886154
702.892 0.689037
705.284 0.452140
707.676 0.320764
710.067 0.240495
712.459 0.187961
717.243 0.125819
722.026 0.0920776
726.810 0.0719569
731.593 0.0592077
741.160 0.0452349
750.727 0.0392338
769.861 0.0393741
779.428 0.0444635
788.995 0.0541105
798.562 0.0713746
808.129 0.103852
812.913 0.131398
817.696 0.173437
822.480 0.242048
824.871 0.293873
826.067 0.326562
826.665 0.345067
827.263 0.365244
827.861 0.387306
828.459 0.411485
829.057 0.438072
829.655 0.467386
830.253 0.499825
830.851 0.535837
831.449 0.575972
832.047 0.620886
833.242 0.728386
834.438 0.866976
835.634 1.04990
836.830 1.29823
838.026 1.64732
839.222 2.15977
840.418 2.95536
841.614 4.28631
842.212 5.31496
842.809 6.75888
843.407 8.87151
844.005 12.1247
844.603 17.4749
845.201 27.0355
845.500 34.7811
845.799 45.9277
846.098 62.3001
846.397 86.2808
846.849 138.122
847.300 173.395
847.752 139.386
848.203 87.2347
848.532 60.9584
848.861 43.7157
849.190 32.3846
849.519 24.7457
850.177 15.6078
850.835 10.6554
851.493 7.70768
852.150 5.82297
853.466 3.65026
854.782 2.49781
856.098 1.81605
857.413 1.38030
858.729 1.08544
861.361 0.724645
863.992 0.523903
866.624 0.419387
867.282 0.417912
867.940 0.458996
868.269 0.533956
868.433 0.612081
868.597 0.754820
868.762 1.05176
868.844 1.33465
868.926 1.82227
869.009 2.76939
869.050 3.61430
869.091 4.97603
869.132 7.36564
869.173 12.0838
869.194 16.3314
869.214 23.0613
869.235 34.3628
869.255 53.5125
869.278 85.4380
869.300 106.723
869.322 85.4388
869.345 53.5127
869.368 32.5132
869.391 20.9901
869.414 14.4523
869.438 10.5013
869.461 7.96659
869.484 6.25622
869.530 4.17965
869.577 3.01669
869.623 2.30447
869.716 1.51599
869.809 1.11184
869.901 0.877727
870.087 0.629770
870.272 0.507044
870.458 0.436529
870.829 0.360749
871.571 0.295977
872.313 0.264607
875.280 0.204001
881.216 0.147966
887.151 0.122895
893.087 0.118338
899.022 0.140353
901.990 0.171180
904.958 0.232623
906.442 0.286105
907.925 0.368779
909.409 0.505048
910.893 0.751610
911.635 0.957002
912.377 1.26656
912.748 1.48384
912.934 1.61480
913.119 1.76431
913.304 1.93624
913.490 2.13518
913.675 2.36709
913.861 2.63948
914.046 2.96268
914.232 3.34991
914.417 3.81919
914.603 4.39534
914.788 5.11326
914.974 6.02329
915.159 7.20007
915.345 8.75704
915.530 10.8780
915.716 13.8662
915.901 18.2570
916.087 25.0550
916.272 36.3292
916.365 44.9151
916.458 56.7176
916.550 73.4334
916.643 97.7213
916.736 133.810
916.829 187.320
916.964 299.362
917.100 372.370
917.236 296.459
917.372 185.100
917.533 104.572
917.694 64.0214
917.856 42.4233
918.017 29.9249
918.179 22.1475
918.340 17.0145
918.663 10.9114
918.985 7.57459
919.308 5.56067
919.954 3.36098
920.599 2.25105
921.245 1.61484
921.890 1.21674
922.536 0.951243
923.827 0.630181
925.118 0.450765
926.409 0.340354
927.700 0.267543
930.282 0.180321
932.864 0.131873
938.029 0.0823114
943.193 0.0584075
948.357 0.0448578
958.686 0.0305514
969.014 0.0233903
979.343 0.0193024
1000.00 0.0155265
1016.96 0.0154063
1025.44 0.0166874
1033.92 0.0197867
1042.39 0.0271948
1046.63 0.0348468
1050.87 0.0489994
1052.99 0.0610203
1055.11 0.0794744
1057.23 0.109892
1059.35 0.165303
1060.41 0.211959
1061.47 0.283115
1062.53 0.399487
1063.59 0.609112
1064.12 0.783840
1064.65 1.04762
1064.92 1.23309
1065.18 1.47301
1065.45 1.79095
1065.58 1.99100
1065.71 2.22474
1065.84 2.50463
1065.98 2.83819
1066.11 3.24660
1066.24 3.74576
1066.37 4.37478
1066.51 5.16951
1066.64 6.21044
1066.77 7.58682
1066.90 9.49038
1067.04 12.1791
1067.17 16.2142
1067.30 22.5330
1067.43 33.3729
1067.50 41.7814
1067.57 53.6219
1067.63 70.8734
1067.70 96.9363
1067.76 137.580
1067.83 201.323
1067.92 322.279
1068.00 403.728
1068.09 323.692
1068.17 202.416
1068.24 132.270
1068.32 89.9366
1068.39 64.0359
1068.47 47.5014
1068.61 28.7866
1068.76 19.2138
1068.91 13.6599
1069.06 10.1922
1069.35 6.29265
1069.65 4.25855
1069.94 3.07440
1070.24 2.32332
1070.53 1.81752
1071.12 1.19928
1071.72 0.851051
1072.31 0.635829
1072.90 0.493812
1074.08 0.323425
1075.26 0.229277
1076.44 0.171768
1077.62 0.134150
1079.99 0.0895166
1082.35 0.0650865
1084.71 0.0502971
1087.07 0.0406895
1091.80 0.0294187
1096.52 0.0233825
1105.98 0.0176878
1115.43 0.0155435
1124.88 0.0150087
1143.78 0.0169490
1162.68 0.0238501
1172.13 0.0311933
1181.59 0.0447267
1186.31 0.0561461
1191.04 0.0735777
1195.76 0.102129
1200.49 0.153788
1202.85 0.197024
1205.21 0.262640
1207.58 0.369293
1208.76 0.449601
1209.94 0.559967
1210.53 0.631410
1211.12 0.717670
1211.71 0.823146
1212.01 0.884813
1212.30 0.953747
1212.60 1.03141
1212.89 1.11873
1213.19 1.21807
1213.48 1.33093
1214.08 1.61018
1214.67 1.98718
1215.26 2.51533
1215.85 3.28578
1216.44 4.47160
1217.03 6.42668
1217.32 7.92355
1217.62 9.99332
1217.91 12.9728
1218.21 17.4630
1218.51 24.6556
1218.80 36.9201
1219.10 59.5733
1219.24 78.0316
1219.39 103.485
1219.65 164.803
1219.90 206.223
1220.16 166.448
1220.41 104.769
1220.70 60.7624
1220.99 37.8694
1221.28 25.3745
1221.57 18.0293
1221.86 13.4098
1222.15 10.3383
1222.72 6.65907
1223.30 4.63202
1223.88 3.40587
1225.04 2.06120
1226.19 1.38011
1227.35 0.989395
1228.51 0.744540
1229.66 0.581394
1231.98 0.384230
1234.29 0.274418
1236.60 0.207235
1238.91 0.163342
1243.54 0.111837
1248.16 0.0847433
1252.79 0.0698358
1257.42 0.0622131
1266.67 0.0630247
1271.29 0.0731763
1275.92 0.0961130
1278.23 0.116801
1280.54 0.149231
1282.86 0.203262
1285.17 0.301998
1286.33 0.385027
1287.48 0.511086
1288.64 0.716166
1289.79 1.08209
1290.37 1.38434
1290.66 1.58579
1290.95 1.83525
1291.24 2.14925
1291.53 2.55205
1291.67 2.79847
1291.82 3.08046
1291.96 3.40991
1292.11 3.79244
1292.40 4.78351
1292.69 6.21991
1292.97 8.41151
1293.12 9.97170
1293.26 11.9885
1293.41 14.6966
1293.55 18.3869
1293.70 23.6646
1293.84 31.4223
1293.99 43.5810
1294.13 63.5123
1294.28 98.7795
1294.42 162.331
1294.56 260.143
1294.70 325.046
1294.84 259.943
1294.98 162.739
1295.09 110.845
1295.20 77.8754
1295.31 56.8087
1295.42 42.9057
1295.64 26.6385
1295.86 18.0066
1296.08 12.9386
1296.30 9.72847
1296.74 6.06586
1297.18 4.13331
1297.62 2.99777
1298.06 2.27225
1298.50 1.78301
1299.38 1.18272
1300.26 0.843064
1301.14 0.632467
1302.01 0.492973
1303.77 0.325438
1305.53 0.232606
1307.29 0.175833
1309.05 0.138608
1312.56 0.0943991
1316.08 0.0702327
1323.11 0.0464292
1330.15 0.0364193
1337.18 0.0337817
1340.70 0.0362624
1344.21 0.0469229
1345.97 0.0629277
1346.85 0.0791552
1347.73 0.108953
1348.61 0.172685
1349.05 0.236034
1349.49 0.350558
1349.71 0.446589
1349.93 0.592264
1350.15 0.828730
1350.37 1.24795
1350.48 1.59425
1350.59 2.11108
1350.70 2.93148
1350.81 4.34825
1350.92 7.11171
1350.97 9.59749
1351.03 13.6379
1351.05 16.7362
1351.08 20.8193
1351.09 23.5366
1351.11 26.8062
1351.12 30.7826
1351.14 35.2901
1351.15 41.2901
1351.16 48.8636
1351.18 58.5631
1351.19 70.1537
1351.20 86.4476
1351.22 106.389
1351.23 134.841
1351.24 169.456
1351.26 216.368
1351.27 269.735
1351.30 336.260
1351.31 316.967
1351.33 270.192
1351.36 169.814
1351.38 121.878
1351.39 89.3405
