Gd-152(n,tot) ENDF/B-VII.1
Energy(eV) XS(b)
1.00000E-05 37572.3
1.25893E-05 33519.2
1.58489E-05 29907.0
1.99526E-05 26687.6
2.00000E-05 26656.3
2.01600E-05 26551.5
2.03199E-05 26448.0
2.06399E-05 26244.6
2.12797E-05 25851.6
2.25595E-05 25116.3
2.51189E-05 23818.2
3.16228E-05 21260.9
3.98107E-05 18981.7
5.00000E-05 16970.1
5.01187E-05 16950.3
5.05242E-05 16883.4
5.09298E-05 16817.2
5.17408E-05 16687.3
5.33630E-05 16436.3
5.66072E-05 15967.2
6.30957E-05 15139.9
7.94328E-05 13526.3
0.000100000 12088.2
0.000125893 10806.4
0.000158489 9664.11
0.000199526 8645.97
0.000200000 8636.07
0.000201600 8602.94
0.000203199 8570.20
0.000206399 8505.87
0.000212797 8381.58
0.000225595 8149.07
0.000251189 7738.53
0.000316228 6929.77
0.000398107 6208.94
0.000500000 5572.72
0.000501187 5566.48
0.000505242 5545.30
0.000509298 5524.38
0.000517408 5483.28
0.000533630 5403.91
0.000566072 5255.52
0.000630957 4993.86
0.000794328 4483.48
0.00100000 4028.57
0.00126000 3621.68
0.00158000 3266.26
0.00200000 2936.39
0.00251000 2653.22
0.00316000 2397.07
0.00398000 2168.32
0.00500000 1966.53
0.00501000 1964.86
0.00505063 1958.13
0.00509125 1951.49
0.00517250 1938.44
0.00533500 1913.23
0.00566000 1866.11
0.00631000 1783.01
0.00794000 1621.47
0.0100000 1476.80
0.0125900 1347.90
0.0158500 1232.87
0.0199500 1130.20
0.0200000 1129.15
0.0201600 1125.80
0.0203200 1122.49
0.0206400 1115.98
0.0212800 1103.41
0.0225600 1079.88
0.0251200 1038.29
0.0253000 1035.60
0.0256950 1029.80
0.0260900 1024.13
0.0268800 1013.17
0.0284600 992.611
0.0316200 956.162
0.0398100 882.529
0.0500000 817.119
0.0501200 816.467
0.0505256 814.280
0.0509313 812.119
0.0517425 807.872
0.0533650 799.661
0.0566100 784.282
0.0631000 757.060
0.0794300 703.514
0.100000 655.007
0.125890 610.888
0.158490 570.490
0.199530 533.221
0.200000 532.854
0.201600 531.615
0.203199 530.388
0.206399 527.972
0.212798 523.283
0.225595 514.431
0.251190 498.515
0.316230 465.829
0.398110 434.661
0.500000 404.851
0.501190 404.544
0.505245 403.503
0.509301 402.472
0.517411 400.436
0.533633 396.465
0.566075 388.898
0.630960 375.054
0.794330 345.831
1.00000 316.597
1.25893 287.190
1.58489 257.589
1.99526 227.932
2.00000 227.627
2.01600 226.603
2.03199 225.588
2.06399 223.582
2.12797 219.667
2.25595 212.196
2.51189 198.533
3.16228 169.851
3.98107 142.445
5.00000 117.134
5.01187 116.881
5.05242 116.026
5.09298 115.181
5.17408 113.519
5.33630 110.304
5.66072 104.280
6.30957 93.6375
7.94328 72.9761
8.97164 63.0989
10.0000 54.9947
10.5801 51.4084
10.8701 50.2217
11.1601 50.0668
11.4501 52.7116
11.5951 56.8086
11.7402 65.6870
11.8127 73.8223
11.8852 86.7833
11.9577 108.644
12.0302 148.681
12.1027 231.744
12.1389 310.135
12.1571 367.183
12.1661 402.245
12.1752 442.883
12.1843 490.365
12.1933 546.138
12.2024 612.340
12.2115 691.468
12.2205 787.219
12.2296 904.139
12.2386 1048.86
12.2477 1230.52
12.2568 1462.47
12.2658 1763.21
12.2749 2161.26
12.2840 2699.50
12.2930 3444.82
12.3021 4496.92
12.3111 6005.86
12.3202 8159.59
12.3351 13197.6
12.3500 16692.8
12.3575 15814.1
12.3649 13537.4
12.3798 8591.39
12.3929 5673.34
12.4060 3906.01
12.4191 2820.05
12.4322 2123.59
12.4584 1329.78
12.4845 917.418
12.5107 677.608
12.5369 526.164
12.5893 352.694
12.6402 262.411
12.6911 207.850
12.7930 147.476
12.8949 116.125
12.9967 97.4912
13.0986 85.3453
13.2004 76.8792
13.4042 65.9174
13.6079 59.1209
13.8116 54.4480
14.2191 48.2802
15.0340 41.1671
15.8489 36.6569
17.9008 29.1268
19.9526 23.8429
20.0000 23.7360
20.1600 23.3788
20.3199 23.0277
20.6399 22.3421
21.2797 21.0324
22.5594 18.6181
25.1189 14.3771
28.3708 9.71467
29.9968 7.73192
31.6228 6.51638
32.2686 6.62917
32.5915 6.95498
32.7529 7.21620
32.9143 7.56017
32.9951 7.76831
33.0758 8.00369
33.1162 8.13245
33.1565 8.26908
33.1969 8.41615
33.2372 8.57475
33.2776 8.73859
33.3180 8.90784
33.3583 9.08495
33.3987 9.27795
33.4390 9.48214
33.4794 9.69811
33.5601 10.1680
33.6409 10.6932
33.7216 11.2801
33.8830 12.6690
34.0445 14.4066
34.2059 16.5880
34.3673 19.3418
34.5288 22.8438
34.6902 27.3407
34.8517 33.1840
35.0131 40.8913
35.1746 51.2435
35.3360 65.4681
35.4975 85.5697
35.6589 115.012
35.8203 160.165
35.9818 233.805
36.1432 364.551
36.2240 471.045
36.3047 627.635
36.3854 870.457
36.4661 1274.41
36.5468 2014.78
36.5872 2636.66
36.6276 3576.28
36.6679 5078.05
36.7083 7648.48
36.7486 12397.6
36.7890 21607.4
36.8245 34809.8
36.8600 43856.4
36.8955 35359.1
36.9310 22242.5
36.9673 13627.3
37.0036 8841.41
37.0399 6099.13
37.0761 4428.97
37.1124 3350.65
37.1487 2619.01
37.2213 1723.25
37.2938 1218.62
37.3664 907.204
37.5115 558.739
37.6566 378.119
37.8018 272.434
37.9469 205.483
38.0920 161.074
38.3823 113.710
38.5274 108.312
38.5999 111.945
38.6725 121.992
38.7088 130.386
38.7269 135.677
38.7451 141.828
38.7541 145.263
38.7632 148.961
38.7723 152.939
38.7814 157.218
38.7904 161.821
38.7995 166.771
38.8086 172.096
38.8176 177.825
38.8358 190.626
38.8539 205.476
38.8721 222.741
38.8902 242.872
38.9265 294.117
38.9628 365.667
38.9990 468.126
39.0353 619.622
39.0716 853.364
39.1079 1234.58
39.1442 1903.92
39.1623 2437.95
39.1804 3201.77
39.1986 4332.12
39.2167 6066.77
39.2349 8815.26
39.2530 13197.5
39.2765 21758.8
39.3000 27879.2
39.3235 22863.7
39.3470 14729.1
39.3615 11081.9
39.3760 8487.78
39.4050 5335.61
39.4340 3645.99
39.4629 2658.26
39.4919 2035.65
39.5209 1619.09
39.5789 1112.88
39.6368 827.177
39.6948 649.010
39.8107 445.046
39.9011 354.590
39.9914 293.851
40.1720 218.478
40.3527 174.091
40.5333 145.028
40.8946 109.351
41.2559 88.2214
41.6172 74.2262
41.9784 64.7866
42.1591 62.2205
42.2494 62.1900
42.3397 64.1459
42.4300 71.0030
42.4752 78.8547
42.5204 93.6008
42.5655 123.956
42.5881 151.807
42.6107 197.115
42.6333 276.467
42.6558 429.974
42.6671 563.499
42.6728 654.649
42.6784 768.311
42.6841 911.681
42.6897 1092.86
42.6954 1322.75
42.7010 1610.84
42.7083 2075.03
42.7155 2615.18
42.7300 3342.42
42.7373 3189.89
42.7446 2754.10
42.7591 1784.85
42.7733 1159.34
42.7874 796.870
42.8015 581.765
42.8157 447.046
42.8440 296.414
42.8722 219.166
42.9005 174.295
42.9288 145.833
42.9854 112.773
43.0420 94.7099
43.0985 83.5356
43.2117 70.5632
43.3248 63.2188
43.4379 58.3969
43.6642 52.1998
44.1168 45.1219
44.5693 40.6651
45.4744 34.7292
46.3796 30.6824
48.1898 25.2494
50.0000 21.6379
50.1187 21.4404
50.5243 20.7938
50.9298 20.1873
51.7409 19.0772
53.3630 17.1805
56.6072 14.2252
59.8515 11.8875
63.0957 9.81416
65.8931 8.03216
67.2917 7.08467
68.6904 6.08132
70.0890 5.09601
70.7884 4.74913
71.4877 4.82131
71.8374 5.26255
72.0122 5.68531
72.1870 6.31898
72.2744 6.74258
72.3182 6.98753
72.3619 7.25763
72.4056 7.55554
72.4493 7.88424
72.4930 8.24709
72.5367 8.64782
72.5804 9.09093
72.6241 9.58125
72.6678 10.1244
72.7115 10.7267
72.7989 12.1400
72.8864 13.8946
72.9738 16.0907
73.0612 18.8650
73.1486 22.4091
73.2360 26.9964
73.3234 33.0299
73.4109 41.1151
73.4983 52.2031
73.5857 67.8369
73.6731 90.6672
73.7605 125.509
73.8479 181.867
73.9353 280.475
73.9791 359.462
74.0228 473.594
74.0665 646.215
74.1102 922.943
74.1539 1402.22
74.1976 2322.18
74.2195 3120.30
74.2413 4343.82
74.2632 6285.59
74.2850 9392.22
74.3125 15257.6
74.3400 19359.6
74.3675 15720.9
74.3950 9975.28
74.4147 7092.45
74.4344 5170.39
74.4540 3889.51
74.4737 3014.82
74.5131 1952.70
74.5524 1366.44
74.5918 1011.98
74.6312 782.131
74.7099 512.293
74.7886 365.668
74.8673 276.944
74.9460 218.976
75.0247 178.896
75.1822 128.260
75.3396 98.4295
75.4970 79.2148
75.6545 66.0148
75.9693 49.3607
76.2842 39.4835
76.5991 33.0403
76.9139 28.5417
77.5436 22.7084
78.1734 19.0936
79.4328 14.7902
80.9548 11.7744
82.4768 9.70589
83.2378 8.85379
83.9987 8.15321
84.3792 7.99097
84.5695 8.07129
84.7597 8.44014
84.9500 9.57339
85.0451 10.8703
85.1402 13.3775
85.2353 18.8496
85.2829 24.2180
85.3305 33.6286
85.3780 52.0881
85.4018 68.6153
85.4137 80.2191
85.4196 87.2094
85.4256 95.1671
85.4315 104.305
85.4375 114.821
85.4434 127.040
85.4494 141.283
85.4553 158.060
85.4613 177.908
85.4731 230.252
85.4850 307.852
85.4969 427.557
85.5088 619.015
85.5207 928.169
85.5354 1501.49
85.5500 1901.09
85.5573 1801.80
85.5647 1543.09
85.5793 979.992
85.5925 642.206
85.6056 439.778
85.6188 316.565
85.6319 238.098
85.6583 149.263
85.6846 103.397
85.7109 76.8201
85.7372 60.0733
85.7899 40.9230
85.8425 30.7555
85.8951 24.6796
86.0004 18.0158
86.1057 14.5712
86.2110 12.5203
86.4215 10.2291
86.6321 8.98191
86.8426 8.18574
87.2637 7.19511
88.1059 6.19857
88.9482 6.08856
89.3693 6.58583
89.7904 7.84961
89.8957 8.36001
90.0009 8.98080
90.0536 9.33978
90.1062 9.73569
90.1589 10.1725
90.2115 10.6546
90.2641 11.1872
90.3168 11.7760
90.3694 12.4277
90.4220 13.1495
90.5273 14.8400
90.6326 16.9334
90.7379 19.5459
90.8431 22.8354
90.9484 27.0228
91.0537 32.4214
91.1590 39.4905
91.2642 48.9162
91.3695 61.7668
91.4748 79.7613
91.5801 105.817
91.6854 145.162
91.7906 207.903
91.8959 315.520
91.9485 400.066
92.0012 520.018
92.0538 697.154
92.1065 972.061
92.1591 1426.66
92.2117 2240.57
92.2381 2898.46
92.2644 3841.72
92.2907 5218.11
92.3170 7219.23
92.3585 11764.4
92.4000 14966.3
92.4415 12185.1
92.4830 7755.98
92.5124 5547.90
92.5417 4066.69
92.5711 3073.59
92.6005 2392.39
92.6592 1560.58
92.7179 1098.79
92.7766 818.255
92.8354 635.654
92.9528 420.332
93.0703 302.711
93.1877 231.206
93.3052 184.299
93.4226 151.738
93.6575 110.397
93.8924 85.8818
94.1274 69.9958
94.3623 59.0226
94.8321 45.0780
95.3019 36.7327
95.7717 31.2462
96.2415 27.3901
97.1811 22.3535
98.1208 19.2132
99.0604 17.0597
100.000 15.4803
101.618 13.5384
103.237 12.1642
106.473 10.2734
109.710 8.95360
112.946 7.91224
119.419 6.19291
122.656 5.38630
125.893 4.54727
129.397 3.53810
131.150 2.97721
132.902 2.39963
133.778 2.13914
134.654 1.95932
135.530 1.99621
135.968 2.19438
136.078 2.27542
136.187 2.37283
136.297 2.48906
136.406 2.62710
136.516 2.79009
136.626 2.98214
136.735 3.20798
136.845 3.47328
136.954 3.78515
137.064 4.15122
137.283 5.08880
137.502 6.39699
137.721 8.24435
137.940 10.9028
138.159 14.8252
138.378 20.8115
138.597 30.3537
138.816 46.5248
138.925 58.9907
139.035 76.3305
139.145 101.297
139.254 138.719
139.364 197.979
139.473 298.858
139.583 488.778
139.637 652.139
139.692 903.406
139.747 1315.69
139.802 2042.87
139.856 3449.15
139.884 4636.96
139.911 6332.38
139.956 10272.7
140.000 13052.8
140.045 10615.6
140.090 6726.50
140.126 4596.34
140.162 3249.66
140.198 2387.84
140.234 1820.46
140.306 1153.51
140.378 797.513
140.449 586.266
140.521 451.135
140.665 294.479
140.809 210.158
140.953 159.431
141.096 126.358
141.240 103.528
141.528 74.6766
141.815 57.6495
142.103 46.6517
142.390 39.0721
142.965 29.4612
143.540 23.7199
144.115 19.9485
144.690 17.2982
145.840 13.8307
146.990 11.6583
148.140 10.1554
149.290 9.03884
151.590 7.44351
153.890 6.29403
156.189 5.35370
157.339 4.92058
157.914 4.71343
158.489 4.53444
158.860 4.48433
159.045 4.52495
159.230 4.68707
159.416 5.17757
159.508 5.73970
159.601 6.83073
159.693 9.22305
159.740 11.5781
159.786 15.7153
159.832 23.8440
159.855 31.1454
159.879 42.8223
159.890 51.4966
159.902 63.1748
159.908 70.5707
159.913 79.3328
159.919 89.7986
159.925 102.170
159.931 117.452
159.936 136.214
159.942 159.477
159.948 188.599
159.954 225.369
159.960 272.071
159.965 331.430
159.971 404.735
159.978 522.072
159.986 655.620
160.000 829.795
160.007 786.664
160.015 674.709
160.029 429.314
160.042 278.803
160.056 189.893
160.069 136.392
160.083 102.597
160.109 64.6198
160.136 45.1342
160.163 33.8797
160.190 26.7996
160.243 18.7199
160.297 14.4185
160.351 11.8455
160.404 10.1730
160.458 9.01917
160.565 7.55180
160.672 6.67600
160.886 5.69299
161.100 5.15393
161.315 4.80644
161.743 4.36199
162.600 3.82901
163.457 3.44330
165.171 2.78100
166.886 2.14186
168.600 1.51274
169.457 1.25358
170.314 1.16482
170.528 1.20472
170.742 1.28955
170.850 1.35421
170.957 1.43827
171.064 1.54281
171.171 1.67490
171.278 1.83939
171.385 2.04290
171.492 2.29429
171.599 2.60462
171.707 2.98852
171.814 3.46373
172.028 4.79415
172.242 6.90986
172.457 10.4094
172.671 16.5466
172.778 21.3976
172.885 28.2734
172.992 38.3821
173.099 53.9040
173.206 79.2228
173.314 124.039
173.367 160.372
173.421 213.439
173.474 294.840
173.528 427.601
173.581 664.357
173.608 857.108
173.635 1137.89
173.662 1568.44
173.689 2260.37
173.715 3429.09
173.742 5436.87
173.771 8830.83
173.800 11251.2
173.829 9173.72
173.858 5818.95
173.881 3985.01
173.904 2816.85
173.927 2069.30
173.950 1575.00
173.996 994.504
174.042 684.401
174.088 500.904
174.134 383.687
174.226 248.049
174.318 175.365
174.410 131.770
174.502 103.469
174.594 84.0056
174.778 59.5029
174.962 45.1304
175.146 35.8974
175.330 29.5668
175.698 21.5786
176.066 16.8339
176.802 11.5401
177.537 8.66581
178.273 6.83451
179.745 4.53641
181.217 3.08574
181.953 2.61801
182.689 2.49684
183.057 2.72114
183.241 2.96827
183.333 3.14049
183.424 3.35320
183.516 3.61491
183.608 3.93546
183.700 4.32744
183.792 4.80680
183.884 5.39392
183.976 6.11517
184.068 7.00501
184.160 8.10783
184.252 9.48748
184.344 11.2270
184.436 13.4437
184.528 16.3048
184.620 20.0542
184.712 25.0589
184.804 31.8886
184.896 41.4531
184.988 55.3361
185.080 76.3464
185.172 109.956
185.264 167.804
185.310 213.501
185.356 278.637
185.402 375.419
185.448 526.931
185.494 780.479
185.540 1242.65
185.563 1622.98
185.586 2177.40
185.609 3002.78
185.632 4223.31
185.666 6848.78
185.700 8709.63
185.735 7090.03
185.769 4491.14
185.796 3096.70
185.823 2203.21
185.850 1627.85
185.877 1246.48
185.930 793.786
185.984 550.616
186.038 405.614
186.092 312.723
186.199 204.511
186.307 146.135
186.414 110.918
186.522 87.9369
186.629 72.0537
186.844 51.9324
187.059 40.0342
187.274 32.3256
187.489 27.0002
187.919 20.2140
188.349 16.1279
188.778 13.4179
189.208 11.4917
190.068 8.92390
190.928 7.26501
192.648 5.16127
194.367 3.78317
196.087 2.74432
197.807 1.97407
198.666 1.77212
199.096 1.77209
199.526 1.89462
199.645 1.95990
199.763 2.04302
199.882 2.14722
200.000 2.27608
200.095 2.40033
200.189 2.54447
200.283 2.71412
200.378 2.91214
200.472 3.14362
200.567 3.41366
200.756 4.09872
200.944 5.04242
201.133 6.35849
201.322 8.22793
201.511 10.9491
201.700 15.0487
201.889 21.5035
202.078 32.3006
202.267 51.9487
202.361 68.2616
202.455 92.5511
202.550 130.808
202.644 195.418
202.739 316.276
202.786 419.396
202.833 577.484
202.880 834.827
202.928 1286.20
202.975 2149.28
202.998 2872.42
203.022 3903.68
203.061 6338.92
203.100 8075.25
203.139 6583.32
203.178 4174.76
203.213 2721.66
203.248 1851.66
203.283 1322.98
203.318 986.833
203.389 606.977
203.459 411.264
203.529 298.047
203.599 226.810
203.740 145.542
203.880 102.475
204.020 76.8201
204.161 60.2297
204.301 48.8393
204.582 34.5134
204.863 26.0950
205.143 20.6588
205.424 16.9053
205.986 12.1146
206.547 9.28253
206.828 8.42928
206.968 8.23520
207.109 8.37902
207.249 9.35250
207.319 10.6054
207.389 13.0925
207.459 18.5305
207.495 23.7870
207.530 32.7914
207.547 39.8564
207.556 44.3953
207.565 49.7663
207.574 56.3327
207.582 64.3642
207.591 74.3076
207.600 86.6269
207.609 102.479
207.617 123.015
207.626 150.115
207.635 186.123
207.644 236.104
207.652 305.213
207.661 404.259
207.670 542.191
207.678 700.886
207.685 882.239
207.700 1122.00
207.708 1066.33
207.715 916.784
207.730 586.206
207.745 369.903
207.760 247.669
207.775 175.758
207.790 131.562
207.806 102.447
207.821 82.5961
207.851 57.8980
207.881 43.6668
207.911 34.7575
207.971 24.5305
208.031 19.0500
208.091 15.7266
208.211 11.9813
208.331 9.95117
208.452 8.67725
208.692 7.13340
209.173 5.52357
209.654 4.58513
210.616 3.38533
211.577 2.58308
212.539 2.00105
213.501 1.59037
214.462 1.35491
214.943 1.31622
215.184 1.32099
215.424 1.34423
215.665 1.38880
215.905 1.45567
216.146 1.54985
216.386 1.67463
216.626 1.83481
216.867 2.03600
217.107 2.28518
217.348 2.59084
217.829 3.41610
218.309 4.62983
218.790 6.42026
219.271 9.09961
219.752 13.2169
220.233 19.7971
220.714 30.9305
221.195 51.3939
221.435 68.4841
221.676 94.0769
221.916 134.583
222.156 203.610
222.397 334.175
222.517 447.011
222.637 622.188
222.757 912.447
222.878 1435.01
222.938 1860.40
222.998 2474.90
223.058 3380.53
223.118 4713.66
223.209 7638.23
223.300 9739.02
223.392 7946.97
223.483 5027.04
223.545 3632.55
223.606 2682.20
223.667 2034.92
223.729 1586.65
223.852 1033.11
223.975 723.262
224.097 534.080
224.220 410.820
224.466 265.393
224.712 186.122
224.957 138.125
225.449 85.0700
225.940 57.6422
226.432 41.4341
226.923 30.9234
227.415 23.6262
228.397 14.2502
228.889 11.1479
229.380 8.89113
229.872 7.83646
230.118 8.24588
230.240 8.93281
230.302 9.46521
230.363 10.1671
230.394 10.5969
230.425 11.0865
230.455 11.6455
230.486 12.2840
230.517 13.0137
230.548 13.8487
230.578 14.8058
230.609 15.9053
230.670 18.6398
230.732 22.3138
230.793 27.3478
230.855 34.4096
230.916 44.6398
230.978 60.0000
231.039 84.3050
231.100 125.500
231.131 157.597
231.162 202.509
231.193 267.895
231.223 367.508
231.254 528.032
231.285 805.086
231.315 1321.52
231.331 1745.19
231.346 2333.44
231.373 3804.92
231.400 4857.33
231.427 3968.66
231.454 2528.01
231.479 1639.88
231.504 1114.70
231.529 797.193
231.553 595.923
231.603 368.874
231.653 251.869
231.702 183.939
231.752 141.169
231.851 92.0819
231.950 65.8345
232.050 50.0595
232.248 32.5841
232.446 23.4347
232.645 17.9468
233.042 11.8665
233.439 8.80789
233.637 7.90922
233.836 7.32961
234.034 7.04090
234.133 7.00434
234.233 7.04167
234.332 7.15632
234.431 7.35276
234.530 7.63730
234.630 8.01781
234.729 8.50463
234.828 9.10872
234.927 9.84582
235.027 10.7320
235.225 13.0437
235.423 16.2705
235.622 20.7535
235.820 27.0030
236.019 35.8149
236.217 48.4654
236.416 67.1286
236.614 95.6453
236.813 141.337
237.011 219.356
237.210 365.144
237.309 488.379
237.408 674.435
237.507 970.001
237.607 1466.90
237.706 2356.41
237.805 4003.23
237.903 6624.75
238.000 8530.59
238.098 7022.24
238.195 4526.80
238.297 2824.50
238.398 1871.36
238.500 1320.20
238.601 981.096
238.703 759.789
238.804 607.951
239.007 419.037
239.210 310.132
239.413 241.428
239.819 162.134
240.225 119.218
240.631 93.0045
241.037 75.5848
241.443 63.2823
242.256 47.1692
243.068 37.1076
243.880 30.1790
244.692 25.0386
246.316 17.6025
247.940 11.9215
248.752 9.35155
249.564 7.01691
249.971 6.14600
250.377 5.89888
250.580 6.29194
250.681 6.71858
250.732 7.01103
250.783 7.36643
250.833 7.79638
250.884 8.31129
250.935 8.92766
250.986 9.66041
251.036 10.5334
251.087 11.5686
251.138 12.8011
251.189 14.2644
251.259 16.7610
251.329 19.9588
251.399 24.0849
251.469 29.4596
251.539 36.5452
251.609 46.0261
251.679 58.9452
251.749 76.9180
251.819 102.697
251.890 140.928
251.960 200.170
252.030 297.327
252.100 469.065
252.135 607.077
252.170 804.780
252.205 1099.68
252.240 1553.54
252.275 2277.08
252.310 3439.10
252.355 5711.12
252.400 7373.19
252.445 6089.30
252.490 3944.24
252.519 2928.42
252.549 2220.25
252.607 1377.86
252.666 935.839
252.725 680.778
252.783 521.099
252.842 414.959
252.959 286.460
253.076 214.073
253.194 169.000
253.428 117.382
253.663 89.5381
253.897 72.4951
254.132 61.1305
