Gd-160(n,g) ENDF/B-VII.1
Energy(eV) XS(b)
1.00000E-05 70.9256
1.25000E-05 63.4378
1.50000E-05 57.9105
2.00000E-05 50.1520
2.75000E-05 42.7697
3.50000E-05 37.9113
4.25000E-05 34.4040
5.00000E-05 31.7189
6.25000E-05 28.3702
7.50000E-05 25.8984
0.000100000 22.4286
0.000125000 20.0608
0.000150000 18.3129
0.000200000 15.8594
0.000275000 13.5250
0.000350000 11.9886
0.000425000 10.8795
0.000500000 10.0304
0.000625000 8.97143
0.000750000 8.18975
0.00100000 7.09252
0.00125000 6.34374
0.00150000 5.79101
0.00200000 5.01515
0.00275000 4.27692
0.00350000 3.79107
0.00425000 3.44033
0.00500000 3.17181
0.00625000 2.83694
0.00750000 2.58974
0.0100000 2.24276
0.0125000 2.00596
0.0150000 1.83116
0.0200000 1.58579
0.0253000 1.40991
0.0314750 1.26402
0.0376500 1.15569
0.0500000 1.00280
0.0625000 0.896877
0.0750000 0.818684
0.100000 0.708916
0.125000 0.633998
0.150000 0.578689
0.200000 0.501039
0.275000 0.427134
0.350000 0.378478
0.500000 0.316431
0.750000 0.258056
1.00000 0.223217
1.50000 0.181823
2.00000 0.157091
2.75000 0.133494
3.50000 0.117913
5.00000 0.0979648
7.50000 0.0790717
10.0000 0.0677063
15.0000 0.0540731
20.0000 0.0458389
27.5000 0.0379128
35.0000 0.0326496
50.0000 0.0259252
75.0000 0.0197566
100.000 0.0164382
125.000 0.0147746
150.000 0.0147709
162.500 0.0158329
175.000 0.0184951
187.500 0.0252435
193.750 0.0326533
200.000 0.0473570
202.739 0.0587557
205.479 0.0762745
208.218 0.105213
210.958 0.158175
212.327 0.202961
213.697 0.271608
215.067 0.384695
216.436 0.590956
217.121 0.764802
217.806 1.03033
218.491 1.46573
219.176 2.25401
219.518 2.91362
219.861 3.91343
220.203 5.53550
220.545 8.42752
220.717 10.8089
220.802 12.3974
220.845 13.3263
220.888 14.3636
220.931 15.5268
220.973 16.8371
221.016 18.3204
221.038 19.1365
221.059 20.0084
221.102 21.9404
221.145 24.1657
221.187 26.7466
221.230 29.7629
221.273 33.3176
221.316 37.5463
221.359 42.6297
221.401 48.8130
221.444 56.4351
221.487 65.9749
221.530 78.1258
221.573 93.9204
221.615 114.947
221.658 143.738
221.701 184.516
221.744 244.665
221.787 337.825
221.829 490.603
221.872 756.495
221.915 1233.19
221.958 1972.92
222.000 2465.97
222.043 1972.64
222.085 1232.79
222.134 708.863
222.183 439.018
222.231 293.037
222.280 207.821
222.329 154.286
222.378 118.779
222.475 76.3800
222.573 53.0724
222.670 38.9759
222.865 23.5249
223.061 15.7113
223.256 11.2260
223.451 8.41749
223.646 6.54401
224.036 4.27904
224.426 3.01464
224.816 2.23800
225.207 1.72727
225.987 1.11842
226.767 0.783410
227.548 0.579639
228.328 0.446602
229.889 0.289235
231.449 0.203302
233.010 0.151325
234.571 0.117527
237.692 0.0777255
240.814 0.0560920
243.935 0.0430507
247.056 0.0345923
253.299 0.0246603
259.542 0.0192820
272.028 0.0139775
284.513 0.0115908
296.999 0.0103878
321.970 0.00956123
346.942 0.00994774
371.913 0.0116066
396.884 0.0159142
409.370 0.0211105
415.613 0.0283023
417.174 0.0333286
418.734 0.0457741
419.515 0.0620152
419.905 0.0778614
420.295 0.106364
420.685 0.166204
420.880 0.224728
421.075 0.329274
421.173 0.415625
421.270 0.544722
421.368 0.750700
421.466 1.10819
421.563 1.81308
421.612 2.45415
421.661 3.50588
421.709 5.41200
421.734 6.99628
421.758 9.35678
421.783 13.1001
421.807 19.4160
421.831 30.8602
421.856 52.3660
421.878 83.7993
421.900 104.769
421.922 83.8036
421.944 52.3714
421.970 30.2402
421.995 18.7900
422.020 12.5744
422.046 8.93173
422.071 6.64508
422.096 5.12646
422.147 3.30921
422.197 2.31014
422.248 1.70479
422.349 1.04118
422.450 0.705342
422.552 0.512473
422.653 0.391679
422.754 0.311162
422.956 0.213733
423.159 0.159420
423.563 0.104253
423.968 0.0783642
424.373 0.0643144
425.182 0.0506592
426.801 0.0421746
428.420 0.0408526
431.658 0.0444000
434.896 0.0528567
438.133 0.0688943
439.752 0.0831548
441.371 0.107267
442.990 0.155608
443.799 0.202127
444.609 0.285386
445.014 0.354859
445.418 0.460363
445.823 0.632538
446.228 0.943125
446.430 1.20239
446.632 1.59462
446.835 2.23011
447.037 3.35996
447.138 4.28873
447.240 5.67238
447.341 7.86377
447.442 11.6312
447.492 14.6277
447.518 16.5796
447.543 18.9488
447.568 21.8619
447.581 23.5826
447.594 25.4972
447.606 27.6709
447.619 30.1115
447.644 36.0843
447.670 43.9945
447.695 54.7568
447.720 69.8749
447.745 91.9362
447.771 125.616
447.796 179.759
447.821 271.422
447.834 339.855
447.847 429.284
447.873 687.517
447.900 859.743
447.913 809.554
447.927 688.096
447.954 430.520
447.984 250.584
448.014 156.511
448.044 105.063
448.074 74.7605
448.104 55.6728
448.134 42.9648
448.194 27.7208
448.254 19.3206
448.314 14.2231
448.433 8.63055
448.553 5.79371
448.673 4.16340
448.793 3.14182
448.913 2.46052
449.153 1.63584
449.393 1.17574
449.633 0.893352
449.873 0.707897
450.353 0.487693
450.833 0.367619
451.793 0.249726
452.752 0.198096
453.712 0.173349
455.631 0.158039
459.470 0.183455
463.309 0.263188
465.229 0.334933
467.148 0.446265
469.068 0.630157
470.987 0.964298
471.947 1.24421
472.427 1.43301
472.907 1.66879
473.147 1.80942
473.387 1.96867
473.627 2.15009
473.866 2.35796
474.106 2.59780
474.346 2.87627
474.586 3.20226
474.826 3.58722
475.066 4.04648
475.306 4.59993
475.546 5.27580
475.786 6.11219
476.026 7.16512
476.266 8.51489
476.506 10.2849
476.746 12.6689
476.986 15.9874
477.226 20.7924
477.465 28.1183
477.705 40.0628
477.945 61.4102
478.065 78.9240
478.185 104.790
478.305 145.001
478.425 211.156
478.545 327.067
478.665 536.339
478.783 858.434
478.900 1074.92
479.018 861.442
479.135 538.590
479.217 382.583
479.298 278.232
479.380 208.400
479.461 160.593
479.624 102.499
479.787 70.5103
479.950 51.2674
480.113 38.8708
480.439 24.4735
480.765 16.7805
481.091 12.2081
481.417 9.27417
481.743 7.28157
482.395 4.82775
483.047 3.43299
483.699 2.56546
484.351 1.98958
485.655 1.29678
486.959 0.911979
488.264 0.676416
489.568 0.521872
492.176 0.338147
494.784 0.237306
497.392 0.176085
500.000 0.136163
504.485 0.0939322
508.969 0.0691925
517.939 0.0429077
526.908 0.0300492
535.877 0.0229384
544.847 0.0188326
553.816 0.0169520
558.301 0.0173169
562.785 0.0205451
565.028 0.0259122
566.149 0.0315000
567.270 0.0418995
568.391 0.0644059
568.952 0.0869324
569.512 0.128048
569.793 0.162689
570.073 0.215546
570.353 0.302018
570.633 0.458010
570.774 0.588010
570.914 0.784115
571.054 1.10056
571.194 1.65920
571.264 2.11521
571.334 2.78968
571.404 3.84734
571.474 5.63860
571.544 9.04097
571.579 12.0076
571.614 16.6783
571.650 24.6326
571.685 39.5081
571.702 52.1494
571.720 71.1980
571.737 100.800
571.755 147.022
571.777 235.440
571.800 294.043
571.823 235.034
571.846 147.033
571.862 102.726
571.879 73.6762
571.895 54.5983
571.912 41.7961
571.945 26.4050
571.978 18.0483
572.011 13.0673
572.044 9.87893
572.110 6.19835
572.177 4.24105
572.243 3.08360
572.309 2.34268
572.375 1.84032
572.508 1.22242
572.640 0.872001
572.773 0.654229
572.905 0.509740
573.170 0.335939
573.435 0.239449
573.700 0.180350
573.964 0.141571
574.494 0.0954144
575.024 0.0700392
576.083 0.0444981
577.143 0.0325061
578.202 0.0259061
580.321 0.0192090
584.559 0.0141713
588.797 0.0122097
605.748 0.00975214
639.650 0.00889953
673.552 0.00962509
690.504 0.0111035
694.741 0.0121597
698.979 0.0147934
701.098 0.0182610
703.217 0.0278660
704.276 0.0410618
704.806 0.0541754
705.336 0.0780309
705.866 0.128646
706.130 0.178584
706.395 0.268492
706.528 0.343342
706.660 0.456112
706.793 0.637623
706.925 0.957467
706.991 1.21818
707.057 1.60234
707.124 2.20267
707.190 3.21633
707.256 5.12557
707.289 6.78029
707.322 9.36652
707.355 13.7082
707.388 21.7114
707.405 28.4220
707.422 38.3075
707.438 53.4431
707.455 76.3667
707.477 122.101
707.500 152.559
707.523 121.890
707.546 76.2035
707.568 47.6002
707.590 31.2873
707.612 21.7481
707.634 15.8572
707.656 12.0187
707.678 9.39858
707.721 6.18069
707.765 4.35816
707.809 3.23607
707.897 1.98316
707.985 1.33897
708.073 0.965227
708.161 0.729467
708.249 0.571331
708.425 0.378985
708.601 0.271067
708.776 0.204509
708.952 0.160595
709.304 0.108081
709.655 0.0790989
710.359 0.0498814
711.062 0.0362020
711.765 0.0287343
713.172 0.0213125
715.985 0.0161266
718.798 0.0144787
730.050 0.0140296
741.303 0.0171298
744.116 0.0197241
746.929 0.0265479
748.335 0.0357375
749.039 0.0448288
749.742 0.0613553
750.445 0.0965031
750.797 0.131302
751.148 0.194292
751.324 0.247002
751.500 0.326858
751.676 0.456357
751.852 0.687064
751.940 0.876871
752.027 1.15993
752.115 1.60884
752.203 2.38301
752.291 3.89000
752.335 5.24466
752.379 7.43686
752.423 11.3312
752.445 14.5017
752.467 19.1272
752.489 26.2635
752.511 37.8431
752.533 57.6968
752.555 92.3967
752.577 147.778
752.600 184.681
752.623 147.782
752.645 92.4016
752.664 62.0343
752.682 43.0880
752.700 31.1666
752.719 23.4259
752.756 14.4189
752.792 9.70481
752.829 6.94863
752.866 5.21600
752.939 3.24362
753.013 2.20857
753.086 1.60091
753.160 1.21443
753.233 0.953940
753.380 0.634782
753.527 0.454608
753.674 0.343002
753.821 0.269134
754.115 0.180516
754.408 0.131457
754.996 0.0818561
755.584 0.0585788
756.172 0.0458506
757.347 0.0331793
759.698 0.0242969
762.049 0.0214425
771.452 0.0201933
790.258 0.0248447
809.065 0.0336994
827.872 0.0499853
837.275 0.0636515
846.678 0.0844093
856.082 0.118178
858.432 0.129951
860.783 0.143641
861.959 0.151338
863.134 0.159690
864.309 0.168772
865.485 0.178673
866.660 0.189495
867.836 0.201354
869.011 0.214389
870.187 0.228760
871.362 0.244656
872.537 0.262302
874.888 0.303963
877.239 0.356592
879.590 0.424403
881.941 0.513851
884.291 0.635217
886.642 0.805681
888.993 1.05567
891.344 1.44332
893.695 2.09083
894.870 2.59047
896.046 3.29091
897.221 4.31372
898.396 5.88527
899.572 8.46086
900.747 13.0421
901.335 16.7354
901.923 22.0289
902.510 29.7605
903.098 41.0224
903.999 65.6635
904.900 82.4012
905.802 66.1837
906.703 41.3866
907.307 29.7392
907.910 21.8256
908.514 16.4630
909.117 12.7549
910.324 8.20129
911.531 5.66842
912.738 4.13442
913.945 3.14173
916.359 1.98382
918.773 1.36280
921.188 0.992690
923.602 0.754871
926.016 0.593216
930.844 0.394033
935.672 0.280782
940.500 0.210381
945.328 0.163703
954.984 0.107746
964.641 0.0771084
974.297 0.0603925
979.125 0.0622484
980.332 0.0695989
981.539 0.0930598
982.143 0.126543
982.445 0.159988
982.746 0.220613
983.048 0.347920
983.199 0.471753
983.350 0.690856
983.501 1.13556
983.576 1.55325
983.652 2.26340
983.727 3.61995
983.765 4.81011
983.802 6.69596
983.840 9.92524
983.878 16.0619
983.897 21.3698
983.916 29.4392
983.934 42.2810
983.953 62.6559
983.977 100.223
984.000 125.269
984.023 100.226
984.047 62.6586
984.062 45.1271
984.078 33.1939
984.109 19.4774
984.140 12.5683
984.172 8.72451
984.203 6.38309
984.234 4.86973
984.296 3.09733
984.359 2.14345
984.421 1.57505
984.545 0.960159
984.670 0.652524
984.795 0.477312
985.044 0.295423
985.293 0.207755
985.543 0.158874
986.041 0.109010
986.540 0.0852306
987.038 0.0719562
988.035 0.0581811
990.029 0.0471735
992.023 0.0423093
1000.00 0.0338684
1012.48 0.0279155
1018.72 0.0286175
1020.28 0.0312252
1021.84 0.0395464
1022.62 0.0514735
1023.40 0.0852290
1023.79 0.131349
1023.98 0.176604
1024.18 0.257543
1024.37 0.424383
1024.47 0.584754
1024.57 0.860257
1024.66 1.40803
1024.71 1.90688
1024.76 2.70669
1024.81 4.17571
1024.83 5.36535
1024.86 7.12769
1024.88 10.0197
1024.91 14.6682
1024.93 22.8954
1024.95 37.9753
1024.98 60.8269
1025.00 76.0948
1025.02 60.8278
1025.05 37.9767
1025.07 21.5771
1025.10 13.4824
1025.13 9.06169
1025.15 6.45759
1025.18 4.76601
1025.20 3.68854
1025.26 2.39223
1025.31 1.66513
1025.36 1.23301
1025.47 0.756762
1025.57 0.512750
1025.68 0.372729
1025.88 0.227047
1026.09 0.156110
1026.30 0.116649
1026.72 0.0763167
1027.56 0.0464990
1028.40 0.0356984
1030.07 0.0276213
1031.74 0.0245215
1038.44 0.0205271
1051.83 0.0178848
1078.62 0.0158951
1105.40 0.0163356
1132.19 0.0195855
1158.97 0.0284179
1172.37 0.0376867
1185.76 0.0547541
1192.46 0.0691233
1199.15 0.0909626
1205.85 0.126466
1209.20 0.153183
1210.87 0.169997
1211.71 0.179504
1212.55 0.189860
1213.38 0.201184
1214.22 0.213570
1215.06 0.227171
1215.89 0.242151
1216.73 0.258703
1217.57 0.277054
1218.41 0.297476
1219.24 0.320290
1220.92 0.374732
1222.59 0.444608
1224.26 0.536341
1225.94 0.660059
1227.61 0.832491
1229.29 1.08284
1230.96 1.46575
1232.63 2.09292
1233.47 2.56756
1234.31 3.22101
1235.15 4.15298
1235.98 5.54043
1236.82 7.71663
1237.66 11.3493
1238.49 17.8334
1239.33 29.8509
1240.12 47.7553
1240.90 59.7801
1241.69 47.9099
1242.47 29.9576
1243.23 18.7266
1243.99 12.3116
1244.74 8.55771
1245.50 6.24122
1246.26 4.72927
1247.02 3.69842
1248.53 2.42921
1250.05 1.71245
1251.56 1.27037
1254.59 0.777781
1257.62 0.524696
1260.65 0.378078
1263.68 0.285705
1266.71 0.223850
1272.77 0.148961
1278.83 0.107734
1284.89 0.0864467
1286.41 0.0862415
1287.92 0.0950485
1288.68 0.111253
1289.44 0.160183
1289.82 0.228448
1290.01 0.295991
1290.20 0.416352
1290.39 0.665962
1290.48 0.904646
1290.58 1.31351
1290.67 2.12328
1290.72 2.84774
1290.77 4.02784
1290.81 6.19432
1290.84 7.99102
1290.86 10.5378
1290.88 14.6765
1290.91 21.2159
1290.93 33.2149
1290.95 54.0479
1290.98 86.7225
1291.00 108.626
1291.02 86.7237
1291.05 54.0494
1291.06 38.3368
1291.08 28.3893
1291.09 21.2169
1291.11 16.5809
1291.14 10.6747
1291.17 7.39497
1291.20 5.41056
1291.23 4.12681
1291.29 2.64679
1291.36 1.83635
1291.42 1.35379
1291.54 0.835966
1291.66 0.574915
1291.79 0.427319
1292.03 0.273240
1292.28 0.198880
1292.53 0.157291
1293.02 0.114635
1294.01 0.0821880
1295.00 0.0694807
1298.94 0.0524640
1306.84 0.0404428
1322.64 0.0292689
1338.43 0.0246634
1354.23 0.0243319
1370.02 0.0295774
1377.92 0.0364254
1385.82 0.0498653
1389.77 0.0615179
1393.72 0.0795330
1397.67 0.109302
1401.62 0.163476
1403.59 0.208910
1405.56 0.277836
1407.54 0.389815
1409.51 0.589493
1410.01 0.664146
1410.50 0.754159
1411.00 0.864045
1411.49 0.999796
1411.74 1.08027
1411.98 1.17094
1412.23 1.27360
1412.48 1.38994
1412.72 1.52363
1412.97 1.67765
1413.46 2.06426
1413.96 2.60306
1414.45 3.38150
1414.94 4.56993
1415.44 6.50156
1415.68 7.95802
1415.93 9.95341
1416.18 12.7813
1416.42 16.9349
1416.67 23.3941
1416.92 33.9960
1417.16 52.4652
1417.41 85.4188
1417.66 136.588
1417.90 170.401
1418.15 136.061
1418.39 84.9960
1418.60 56.0175
1418.81 38.3533
1419.02 27.4496
1419.23 20.4678
1419.64 12.4788
1420.06 8.34019
1420.48 5.94733
1420.89 4.44749
1421.73 2.75053
1422.56 1.86527
1423.40 1.34795
1424.23 1.01963
1425.06 0.798439
1426.73 0.528171
1428.40 0.375861
1430.07 0.281585
1431.74 0.219282
1435.08 0.144582
1438.41 0.103220
1441.75 0.0779410
1445.09 0.0613637
1451.76 0.0416474
1458.43 0.0308011
1471.78 0.0198744
1485.13 0.0147558
1498.48 0.0119784
1525.17 0.00934620
1551.87 0.00843259
1578.56 0.00841554
1605.26 0.00919150
1618.61 0.0102933
1625.28 0.0126449
1628.62 0.0205999
1629.45 0.0285507
1630.29 0.0506886
1630.70 0.0807945
1631.12 0.163164
1631.33 0.272671
1631.54 0.558527
1631.64 0.921396
1631.69 1.25012
1631.75 1.79241
1631.80 2.77835
1631.82 3.60195
1631.85 4.84175
1631.88 6.81641
1631.90 10.1861
1631.93 16.3998
1631.95 28.8999
1631.98 45.9328
1632.00 57.7582
1632.02 45.9334
1632.05 28.9007
1632.06 20.5524
1632.08 15.1614
1632.09 11.2896
1632.11 8.79632
1632.14 5.63365
1632.17 3.92882
1632.20 2.85867
1632.23 2.16943
1632.29 1.37840
1632.35 0.947217
1632.41 0.694563
1632.54 0.419073
1632.78 0.203439
1633.03 0.122632
1633.52 0.0619182
1634.01 0.0399676
1634.99 0.0239492
1635.98 0.0182923
1639.91 0.0130141
1647.77 0.0123461
1663.50 0.0139961
1679.23 0.0172482
1687.09 0.0214720
1689.06 0.0245019
1691.02 0.0321925
1692.01 0.0423832
1692.99 0.0705034
1693.48 0.108804
1693.97 0.213948
1694.22 0.354733
1694.34 0.490695
1694.46 0.727135
1694.59 1.20391
1694.65 1.65019
1694.71 2.38719
1694.77 3.78715
1694.80 4.99526
1694.83 6.79846
1694.86 9.87388
1694.89 15.2092
1694.91 19.8579
1694.92 26.1914
1694.94 35.4782
1694.95 49.6149
1694.98 79.0229
1695.00 99.2105
1695.02 79.0237
1695.05 49.6160
1695.07 28.3283
1695.10 17.3188
1695.13 11.4632
1695.15 8.08022
1695.18 5.97801
1695.21 4.59222
1695.26 2.96812
1695.31 2.06056
1695.37 1.51416
1695.48 0.922510
1695.58 0.621170
1695.69 0.450128
1695.90 0.271372
1696.33 0.136275
1696.76 0.0870678
1697.62 0.0511211
1698.48 0.0384816
1700.20 0.0297114
1701.91 0.0270236
1708.78 0.0266293
1722.51 0.0336553
1736.25 0.0462303
1743.11 0.0557565
1749.98 0.0688258
1753.41 0.0772600
1755.13 0.0820962
1756.85 0.0874158
1758.56 0.0932920
1760.28 0.0997974
1762.00 0.107034
1763.71 0.115104
1765.43 0.124153
1767.15 0.134340
1768.86 0.145862
1770.58 0.158955
1774.01 0.191165
1777.44 0.234439
1780.88 0.294490
1784.31 0.381147
1787.74 0.512693
1791.18 0.725968
1792.89 0.885865
1794.61 1.10410
1796.33 1.41196
1798.04 1.86347
1799.76 2.55856
1801.48 3.68768
1803.19 5.63040
1804.91 9.05968
1806.66 14.4769
1808.40 18.1309
1810.15 14.5638
1811.89 9.12781
1812.95 6.78107
1814.00 5.12448
1816.11 3.13576
1818.22 2.09668
1820.32 1.51969
1822.43 1.20757
1824.54 1.13882
1825.59 1.28840
1826.12 1.48491
1826.65 1.87063
1827.18 2.70527
1827.44 3.51791
1827.70 4.92971
1827.97 7.71385
1828.10 10.2305
1828.23 14.2941
1828.36 21.5756
1828.43 27.5227
1828.46 31.4518
1828.49 36.2645
1828.53 42.2297
1828.56 49.7176
1828.58 54.3300
1828.59 59.2414
1828.63 71.5145
1828.66 87.5184
1828.69 108.555
1828.72 136.182
1828.76 170.572
1828.79 217.884
1828.83 267.829
1828.86 303.382
1828.90 305.108
1828.97 222.388
1829.04 135.409
1829.09 100.340
1829.13 75.9830
1829.22 46.8012
1829.31 31.3029
1829.40 22.3879
1829.48 16.7393
1829.57 12.9979
1829.75 8.54491
1829.92 6.07858
1830.10 4.58910
1830.45 2.94265
1830.80 2.10193
1831.15 1.61339
1831.85 1.09243
1832.55 0.829064
1833.26 0.673927
1834.66 0.500627
1837.47 0.342556
1840.27 0.263570
1845.89 0.178521
1851.50 0.131796
1862.73 0.0827329
1868.34 0.0718273
1871.15 0.0802501
1871.85 0.0933747
1872.55 0.132275
1872.90 0.186166
1873.25 0.333737
1873.43 0.528816
1873.52 0.714585
1873.60 1.03102
1873.69 1.65366
1873.74 2.21384
1873.78 3.09788
1873.82 4.69359
1873.85 5.99263
1873.87 7.89834
1873.89 10.8281
1873.91 15.5826
1873.93 23.7348
1873.95 37.8934
1873.98 60.1276
1874.00 75.6477
1874.02 60.1281
1874.05 37.8105
1874.07 24.2271
1874.09 16.4462
1874.11 11.5243
1874.13 8.57151
1874.17 5.16911
1874.21 3.44073
1874.25 2.45381
1874.29 1.84046
1874.37 1.15783
1874.45 0.799058
1874.54 0.590299
1874.70 0.370547
1875.03 0.201301
1875.35 0.138615
1876.01 0.0915092
1876.66 0.0739567
1877.96 0.0600518
1879.27 0.0540341
1884.49 0.0438457
1894.94 0.0341657
1915.84 0.0254510
1926.29 0.0253427
1931.51 0.0272488
1936.74 0.0320453
1941.96 0.0438453
1944.57 0.0561945
1947.18 0.0791620
1948.49 0.0986944
1949.80 0.128663
1951.10 0.177950
1952.41 0.267381
1953.06 0.342257
1953.71 0.455814
1954.37 0.640053
1955.02 0.968418
1955.35 1.23915
1955.67 1.64174
1956.00 2.28243
1956.16 2.75245
1956.33 3.38435
1956.49 4.26788
1956.57 4.84501
1956.65 5.53760
1956.73 6.40076
1956.82 7.46613
1956.90 8.83731
1956.98 10.5936
1957.06 12.9539
1957.14 16.1806
1957.22 20.7399
1957.31 27.3432
1957.39 37.6159
1957.47 54.0593
1957.55 82.5439
1957.59 104.129
1957.63 131.739
1957.72 210.611
1957.80 259.355
1957.89 204.389
