Gd-156(n,tot) ENDF/B-VII.1
Energy(eV) XS(b)
1.00000E-05 95.0654
1.25000E-05 85.5447
1.50000E-05 78.5168
2.00000E-05 68.6518
2.75000E-05 59.2654
3.50000E-05 53.0879
4.25000E-05 48.6283
5.00000E-05 45.2143
6.25000E-05 40.9565
7.50000E-05 37.8135
0.000100000 33.4018
0.000125000 30.3911
0.000150000 28.1687
0.000200000 25.0491
0.000275000 22.0809
0.000350000 20.1274
0.000425000 18.7172
0.000500000 17.6376
0.000625000 16.2912
0.000750000 15.2973
0.00100000 13.9023
0.00125000 12.9502
0.00150000 12.2475
0.00200000 11.2610
0.00275000 10.3224
0.00350000 9.70475
0.00425000 9.25884
0.00500000 8.91748
0.00625000 8.49176
0.00750000 8.17753
0.0100000 7.73645
0.0125000 7.43546
0.0150000 7.21329
0.0200000 6.90144
0.0253000 6.67792
0.0314750 6.49254
0.0376500 6.35489
0.0500000 6.16062
0.0625000 6.02603
0.0750000 5.92667
0.100000 5.78716
0.125000 5.69191
0.150000 5.62154
0.200000 5.52263
0.275000 5.42825
0.350000 5.36585
0.500000 5.28566
0.750000 5.20886
1.00000 5.16167
1.50000 5.10267
2.00000 5.06434
2.75000 5.02333
3.50000 4.99188
5.00000 4.94163
7.50000 4.87179
10.0000 4.80596
15.0000 4.66568
20.0000 4.49614
23.2944 4.36475
24.9416 4.30157
26.5889 4.26485
27.4125 4.27734
28.2361 4.34106
29.0597 4.51675
29.8833 4.96204
30.2951 5.40960
30.7069 6.16982
31.1187 7.54031
31.5305 10.2447
31.7364 12.6373
31.9423 16.4028
32.0453 19.1310
32.1482 22.7351
32.1997 24.9826
32.2254 26.2456
32.2512 27.6144
32.2640 28.3426
32.2769 29.1020
32.2898 29.8943
32.3026 30.7215
32.3155 31.5855
32.3284 32.4884
32.3541 34.4199
32.3798 36.5382
32.4056 38.8666
32.4313 41.4330
32.4571 44.2689
32.5085 50.9157
32.5600 59.2058
32.6115 69.7176
32.6630 83.2934
32.7144 101.226
32.7659 125.537
32.8174 159.584
32.8689 209.181
32.9203 285.203
32.9718 409.627
32.9975 503.554
33.0233 632.385
33.0490 815.043
33.0748 1084.39
33.1005 1501.26
33.1262 2182.90
33.1520 3362.79
33.1777 5461.21
33.2039 8800.59
33.2300 11082.8
33.2562 8933.79
33.2823 5626.34
33.2986 4153.93
33.3150 3122.33
33.3476 1894.48
33.3803 1252.51
33.4129 885.138
33.4456 657.926
33.4782 508.530
33.5435 331.112
33.6088 234.001
33.6741 175.171
33.8047 110.411
33.9353 77.3100
34.0660 58.0644
34.1966 45.8457
34.3272 37.5774
34.5884 27.3693
34.8496 21.4985
35.1108 17.7839
35.3720 15.2681
35.8945 12.1447
36.4169 10.3259
36.9393 9.15732
37.4617 8.35226
38.5066 7.32622
39.5514 6.70473
40.5963 6.28820
41.6412 5.98796
43.7309 5.57692
45.8206 5.29811
50.0000 4.90848
53.3788 4.65870
55.0681 4.54287
55.9128 4.49537
56.3352 4.50802
56.4408 4.53961
56.5463 4.62789
56.5991 4.73444
56.6519 4.96673
56.6783 5.19646
56.7047 5.60060
56.7311 6.37806
56.7443 7.03308
56.7575 7.96920
56.7788 10.0984
56.8000 11.5182
56.8213 10.0975
56.8425 7.96580
56.8575 6.92508
56.8724 6.23182
56.9023 5.45490
56.9322 5.07262
56.9622 4.86199
57.0220 4.65212
57.0818 4.55455
57.2015 4.46661
57.3211 4.42615
57.7997 4.35731
58.7569 4.27735
60.6713 4.12747
64.5000 3.79232
66.4144 3.59693
68.3288 3.37898
70.2431 3.14456
71.2003 3.03962
71.6789 3.03636
71.9182 3.18399
71.9780 3.32406
72.0379 3.64069
72.0678 3.96531
72.0977 4.55996
72.1276 5.77562
72.1426 6.86315
72.1575 8.49627
72.1788 11.8461
72.2000 14.0794
72.2213 11.8444
72.2425 8.49097
72.2577 6.83338
72.2729 5.73632
72.3033 4.51628
72.3336 3.92052
72.3640 3.59415
72.4248 3.27075
72.4855 3.12153
72.7285 2.93029
73.2145 2.84761
74.1864 2.84655
75.1584 3.07099
76.1303 3.85229
76.3733 4.22782
76.6163 4.72613
76.7378 5.03454
76.7985 5.20651
76.8593 5.39166
76.9200 5.59117
76.9808 5.80627
77.0415 6.03842
77.1023 6.28910
77.1630 6.56013
77.2238 6.85339
77.2845 7.17102
77.3452 7.51536
77.4667 8.29557
77.5882 9.21966
77.7097 10.3206
77.8312 11.6406
77.9527 13.2350
78.0742 15.1767
78.3172 20.5304
78.5602 29.0255
78.6817 35.2064
78.8032 43.3851
78.9247 54.4648
79.0462 69.9065
79.1677 92.1966
79.2891 125.821
79.4106 179.552
79.5321 272.314
79.5929 345.814
79.6536 451.081
79.7144 608.629
79.7751 857.947
79.8359 1282.36
79.8966 2077.06
79.9270 2750.06
79.9574 3758.35
79.9877 5312.82
80.0181 7718.17
80.0591 12505.7
80.1000 15841.4
80.1410 12843.0
80.1819 8128.84
80.2206 5190.78
80.2593 3478.06
80.2980 2458.76
80.3367 1820.50
80.4142 1109.37
80.4916 747.888
80.5690 540.500
80.6464 410.775
80.8012 263.527
80.9561 185.998
81.1109 140.000
81.2657 110.353
81.4205 90.0506
81.7302 64.6508
82.0399 49.8246
82.3495 40.3342
82.6592 33.8447
83.2785 25.6980
83.8978 20.8955
84.5171 17.7812
85.1364 15.6211
86.3751 12.8522
87.6137 11.1716
88.8523 10.0507
90.0910 9.25180
92.5682 8.18859
95.0455 7.50883
97.5227 7.03072
100.000 6.67003
102.614 6.36768
105.229 6.11535
106.536 6.00171
107.843 5.89844
108.496 5.86039
108.823 5.85401
109.150 5.87146
109.477 5.95477
109.640 6.06134
109.804 6.27826
109.885 6.47093
109.967 6.77209
110.049 7.27043
110.130 8.16379
110.212 9.96521
110.253 11.6217
110.294 14.3417
110.335 19.2392
110.375 29.1511
110.396 38.2497
110.416 53.0271
110.437 78.3339
110.457 122.745
110.468 156.921
110.479 196.067
110.500 247.504
110.522 202.014
110.543 130.167
110.563 86.7365
110.582 60.9327
110.601 45.1822
110.621 35.2195
110.660 23.9183
110.699 18.0979
110.737 14.7140
110.776 12.5810
110.854 10.1420
110.932 8.84285
111.010 8.06612
111.087 7.56097
111.165 7.21183
111.320 6.76864
111.476 6.50432
111.787 6.20827
112.098 6.04675
112.409 5.94326
113.030 5.81238
114.274 5.66020
115.518 5.55552
120.492 5.24429
125.467 4.97079
130.441 4.68739
135.416 4.35750
137.903 4.15693
140.390 3.91503
142.877 3.61021
144.121 3.42850
145.365 3.23695
145.986 3.15233
146.608 3.10147
147.230 3.14221
147.852 3.43473
148.163 3.80632
148.474 4.50457
148.785 5.85722
148.940 6.99379
148.979 7.35230
149.018 7.74687
149.057 8.18423
149.095 8.66759
149.134 9.20575
149.173 9.80497
149.212 10.4739
149.251 11.2209
149.290 12.0617
149.329 13.0064
149.406 15.2895
149.484 18.2601
149.562 22.1894
149.640 27.5115
149.717 34.9207
149.795 45.6058
149.873 61.6424
149.950 87.0948
150.028 130.567
150.067 164.670
150.106 212.986
150.145 284.252
150.184 394.430
150.223 576.873
150.261 902.440
150.281 1167.06
150.300 1544.85
150.320 2096.39
150.339 2899.52
150.370 4721.41
150.400 6010.29
150.431 4887.56
150.461 3100.74
150.484 2152.63
150.508 1539.67
150.531 1142.02
150.555 876.159
150.601 560.237
150.648 389.717
150.695 287.706
150.742 222.148
150.835 145.866
150.929 104.658
151.022 79.8423
151.116 63.6621
151.209 52.4847
151.396 38.3664
151.584 30.0486
151.771 24.6877
151.958 21.0037
152.332 16.3477
152.706 13.5837
153.080 11.7796
153.454 10.5211
154.203 8.89374
154.951 7.89316
155.699 7.21599
156.447 6.72535
157.944 6.05354
159.440 5.60345
162.434 5.00136
165.427 4.57259
168.420 4.21113
174.406 3.52608
177.399 3.15740
180.392 2.74911
183.385 2.28998
186.379 1.78987
187.875 1.55004
189.372 1.36630
190.868 1.34923
191.243 1.39868
191.617 1.48325
191.804 1.54198
191.991 1.61381
192.178 1.70077
192.365 1.80509
192.552 1.92958
192.739 2.07738
192.926 2.25229
193.113 2.45870
193.300 2.70223
193.487 2.98929
193.861 3.72699
194.236 4.75872
194.610 6.21658
194.984 8.31145
195.358 11.3924
195.732 16.0704
196.106 23.4792
196.480 35.9293
196.855 58.6573
197.042 77.5351
197.229 105.692
197.416 150.022
197.603 225.004
197.790 365.484
197.883 485.749
197.977 670.780
198.071 974.086
198.164 1510.45
198.258 2551.05
198.304 3436.81
198.351 4712.48
198.426 7633.70
198.500 9716.79
198.575 7913.94
198.649 5002.44
198.734 2920.86
198.818 1832.15
198.902 1235.43
198.987 883.661
199.071 661.118
199.156 512.546
199.325 333.056
199.493 232.939
199.662 171.374
200.000 102.365
200.216 77.1295
200.431 59.8021
200.647 48.2461
200.862 42.5637
200.970 42.9234
201.078 46.9685
201.131 51.1618
201.158 54.0358
201.185 57.5417
201.199 59.5815
201.212 61.8331
201.226 64.3175
201.239 67.0372
201.253 70.0597
201.266 73.3698
201.293 81.0881
201.320 90.5633
201.347 102.162
201.374 116.551
201.401 134.403
201.428 156.918
201.455 185.405
201.482 222.027
201.509 269.802
201.536 333.479
201.562 419.424
201.589 539.041
201.616 708.724
201.643 958.514
201.670 1334.81
201.697 1917.93
201.724 2823.32
201.762 4753.42
201.800 6200.27
201.838 5175.22
201.876 3401.81
201.918 2116.91
201.960 1410.18
202.002 1006.50
202.044 759.496
202.086 598.435
202.128 487.705
202.212 349.206
202.296 268.308
202.380 216.563
202.548 155.465
202.716 121.319
202.884 99.7868
203.219 74.3476
203.555 59.8529
203.891 50.4719
204.563 38.9878
205.234 32.1744
205.906 27.6403
207.249 21.9597
208.592 18.5369
209.935 16.2478
212.622 13.3776
215.308 11.6480
217.995 10.4871
223.367 9.01128
228.740 8.08898
234.113 7.42931
236.799 7.15135
239.486 6.88534
240.829 6.74773
241.501 6.67502
242.172 6.59883
242.844 6.52243
243.180 6.49063
243.515 6.47831
243.683 6.49119
243.851 6.53304
244.019 6.63465
244.187 6.87218
244.271 7.09924
244.355 7.46961
244.439 8.10820
244.523 9.29500
244.607 11.7803
244.649 14.1239
244.691 18.0503
244.733 25.2842
244.754 31.3374
244.775 40.4082
244.796 54.6877
244.817 78.5094
244.827 96.4918
244.838 120.745
244.848 153.687
244.859 197.591
244.869 254.300
244.879 320.197
244.900 407.920
244.910 388.938
244.921 335.449
244.942 217.421
244.955 163.334
244.968 125.488
244.994 80.0166
245.020 55.9654
245.046 42.0516
245.072 33.3583
245.098 27.5823
245.150 20.6271
245.202 16.7415
245.254 14.3490
245.358 11.6481
245.462 10.2179
245.566 9.35908
245.670 8.79586
245.774 8.40240
245.982 7.89433
246.190 7.58355
246.398 7.37423
246.606 7.22339
247.022 7.01819
247.438 6.88210
248.271 6.70372
249.103 6.58278
249.935 6.48864
251.600 6.33899
254.929 6.10591
256.593 6.01311
257.009 5.99876
257.425 6.00320
257.633 6.02965
257.737 6.06071
257.841 6.11953
257.946 6.24263
257.998 6.35811
258.050 6.55206
258.102 6.91117
258.128 7.21566
258.154 7.68009
258.180 8.43243
258.206 9.74628
258.232 12.2493
258.245 14.3408
258.258 17.3131
258.279 24.1649
258.300 28.6994
258.321 24.1299
258.343 17.3104
258.363 13.1008
258.383 10.6668
258.403 9.22810
258.423 8.33250
258.463 7.34258
258.503 6.84509
258.543 6.56111
258.584 6.38460
258.664 6.18554
258.744 6.08062
258.825 6.01782
258.985 5.94721
259.146 5.90808
259.307 5.88213
259.628 5.84680
260.271 5.79829
260.914 5.75835
263.485 5.61558
268.627 5.34692
278.912 4.81303
289.196 4.22991
299.481 3.53070
304.623 3.10952
309.765 2.62065
314.908 2.04870
320.050 1.39609
322.621 1.06359
325.192 0.779636
326.478 0.689169
327.121 0.667952
327.763 0.669708
328.085 0.681405
328.406 0.701762
328.728 0.732080
329.049 0.773867
329.370 0.828878
329.692 0.899159
330.013 0.987107
330.335 1.09550
330.656 1.22772
330.977 1.38768
331.620 1.81039
332.263 2.41330
332.906 3.26888
333.549 4.48563
334.191 6.23057
334.834 8.76977
335.477 12.5440
336.120 18.3241
336.762 27.5374
337.405 43.0511
338.048 71.2509
338.369 94.4489
338.691 128.611
339.012 181.310
339.334 267.641
339.655 420.830
339.816 544.596
339.976 723.937
340.137 994.079
340.298 1418.78
340.458 2113.94
340.619 3266.67
340.810 5372.55
341.000 6917.97
341.191 5705.18
341.381 3667.27
341.519 2620.83
341.656 1921.01
341.794 1453.44
341.931 1133.37
342.206 743.198
342.481 526.725
342.756 395.015
343.031 309.111
343.581 207.338
344.132 151.352
344.682 117.056
345.232 94.3865
345.782 78.5309
346.882 58.1866
347.982 45.9464
349.082 37.9031
350.183 32.2700
352.383 24.9648
354.583 20.4546
356.784 17.3751
358.984 15.1000
363.385 11.7682
365.585 10.3664
367.786 8.96058
369.986 7.39185
371.086 6.48401
372.186 5.47436
372.736 4.95239
373.287 4.47376
373.837 4.17557
374.387 4.46030
374.524 4.73690
374.662 5.15832
374.731 5.44008
374.799 5.78012
374.868 6.19036
374.937 6.68293
375.006 7.27563
375.074 7.98803
375.143 8.84536
375.212 9.87759
375.281 11.1277
375.349 12.6432
375.418 14.4946
375.487 16.7627
375.625 23.0639
375.762 33.0370
375.900 49.6223
375.968 62.1414
376.037 79.1399
376.106 102.889
376.175 137.021
376.243 188.141
376.312 268.220
376.381 401.852
376.450 641.608
376.484 835.509
376.518 1112.75
376.553 1515.41
376.587 2096.11
376.644 3487.83
376.700 4521.61
376.757 3750.16
376.813 2434.82
376.862 1644.59
376.912 1156.07
376.961 850.841
377.010 652.522
377.109 421.920
377.207 299.247
377.306 226.315
377.404 179.406
377.601 124.290
377.798 94.0087
377.995 75.3878
378.192 62.9832
378.389 54.2361
378.784 42.8586
379.178 35.8829
379.572 31.2163
379.966 27.8940
380.754 23.4998
381.542 20.7318
382.330 18.8267
383.119 17.4312
384.695 15.5093
386.271 14.2311
389.424 12.5937
392.577 11.5493
395.729 10.7971
402.035 9.73205
408.340 8.95972
414.646 8.32179
420.951 7.72186
422.527 7.56190
424.104 7.38567
424.892 7.28620
425.286 7.23283
425.680 7.17889
426.074 7.13446
426.271 7.12842
426.468 7.15792
426.567 7.20350
426.665 7.29233
426.764 7.46521
426.862 7.81770
426.961 8.61167
427.010 9.39697
427.059 10.7591
427.109 13.3654
427.133 15.6106
427.158 19.0640
427.183 24.7078
427.207 34.4981
427.232 52.8757
427.244 67.9610
427.256 89.1164
427.267 114.124
427.278 143.141
427.300 183.208
427.322 152.760
427.344 101.125
427.367 65.1029
427.391 45.2002
427.414 33.8260
427.438 26.8860
427.461 22.3831
427.484 19.3065
427.531 15.4937
427.578 13.3040
427.625 11.9244
427.718 10.3336
427.812 9.47251
427.906 8.94543
427.999 8.59427
428.093 8.34553
428.280 8.01738
428.467 7.81052
428.841 7.55986
429.216 7.40672
429.590 7.29733
430.339 7.13764
431.836 6.90342
433.333 6.70045
436.328 6.28940
439.323 5.80627
442.317 5.16865
443.815 4.74882
445.312 4.22417
446.061 3.91276
446.810 3.56921
447.558 3.21341
448.307 2.93079
448.681 2.90141
449.056 3.07361
449.430 3.69997
449.524 3.98719
449.617 4.35497
449.711 4.82538
449.804 5.42703
449.898 6.20078
449.991 7.20033
450.085 8.50142
450.179 10.2119
450.272 12.4888
450.366 15.5671
450.459 19.8095
450.553 25.7889
450.647 34.4881
450.740 47.6140
450.834 68.3946
450.927 103.397
451.021 167.799
451.068 221.482
451.114 301.456
451.161 426.152
451.208 631.087
451.255 986.433
451.302 1617.00
451.351 2679.79
451.400 3468.82
451.449 2873.36
451.499 1858.92
451.548 1178.34
451.598 790.183
451.647 562.484
451.697 421.013
451.747 328.053
451.796 263.962
451.895 183.848
451.995 137.455
452.094 108.140
452.292 74.2680
452.491 55.9453
452.689 44.7894
452.888 37.4089
453.086 32.2311
453.483 25.5312
453.880 21.4445
454.277 18.7200
454.674 16.7847
455.468 14.2289
456.261 12.6179
457.055 11.5045
457.849 10.6819
459.437 9.52450
461.024 8.71507
464.199 7.53223
467.375 6.49869
468.962 5.93104
470.550 5.26602
471.344 4.87783
472.137 4.44320
472.931 3.96588
473.725 3.49467
474.122 3.31990
474.519 3.28120
474.916 3.57772
475.114 3.99066
475.213 4.31044
475.313 4.73633
475.412 5.30215
475.511 6.05255
475.610 7.05222
475.660 7.67281
475.709 8.39305
475.809 10.2118
475.908 12.7076
476.007 16.1965
476.106 21.1852
476.206 28.5357
476.305 39.7510
476.404 57.7209
476.503 88.4188
476.553 112.282
476.602 145.685
476.652 194.011
476.702 266.776
476.751 381.732
476.801 573.869
476.850 914.496
476.900 1537.55
476.950 2555.03
477.000 3316.31
477.050 2754.17
477.100 1786.50
477.132 1336.39
477.164 1019.27
477.227 637.716
477.290 435.085
477.354 317.623
477.417 243.787
477.481 194.568
477.608 134.850
477.734 101.162
477.861 80.1784
478.115 56.1684
478.369 43.2449
478.622 35.3663
478.876 30.1347
479.130 26.4409
479.637 21.6111
480.145 18.6131
480.398 17.5129
480.652 16.6407
480.779 16.3499
480.906 16.3744
480.969 16.7678
481.001 17.2227
481.033 18.0404
481.064 19.5775
481.096 22.7118
481.112 25.5330
481.128 29.9173
481.144 37.0441
481.160 48.5719
481.180 71.5204
481.200 89.2125
481.220 77.3938
481.241 56.0014
481.253 45.9263
481.266 38.7801
481.291 30.0465
481.317 25.3050
481.342 22.5094
481.368 20.7114
481.393 19.4886
481.444 17.9488
481.495 17.0247
481.546 16.4074
481.647 15.6132
481.851 14.7196
482.054 14.1564
482.461 13.3695
482.868 12.7846
483.682 11.9075
484.495 11.2555
486.123 10.3221
487.750 9.66614
491.005 8.75816
492.633 8.42059
493.039 8.35237
493.446 8.30886
493.650 8.31747
493.751 8.34389
493.853 8.40472
493.955 8.54514
494.006 8.68272
494.057 8.91808
494.107 9.36208
494.133 9.74195
494.158 10.3259
494.184 11.2855
494.209 12.9771
494.235 16.2576
494.247 19.0448
494.260 23.0596
494.280 32.0579
494.300 38.0147
494.320 32.0046
494.340 23.0470
494.362 16.8441
494.384 13.5831
494.407 11.7824
494.429 10.7135
494.451 10.0358
494.473 9.58177
494.517 9.03214
494.561 8.72416
494.606 8.53422
494.694 8.31804
494.782 8.20032
494.871 8.12591
495.048 8.03298
495.401 7.92374
495.755 7.84454
497.170 7.58283
500.000 7.08846
503.897 6.32333
505.845 5.84482
507.794 5.24317
508.768 4.87332
509.742 4.44179
510.717 3.93951
511.691 3.38333
512.178 3.11947
512.665 2.93025
513.152 2.96176
513.396 3.16609
513.517 3.35228
513.639 3.61842
513.761 3.99146
513.883 4.50811
514.005 5.22055
514.065 5.67251
514.126 6.20311
514.187 6.82919
514.248 7.56852
514.370 9.48471
514.492 12.2157
514.613 16.1870
514.735 22.1345
514.857 31.3683
514.979 46.4194
515.100 72.5946
515.161 93.2718
515.222 122.585
515.283 165.637
515.344 231.667
515.405 338.473
515.466 522.701
515.527 863.701
515.557 1139.29
515.588 1521.45
515.644 2534.37
515.700 3293.97
515.756 2739.22
515.813 1780.38
515.877 1068.44
515.942 691.045
516.007 481.285
516.072 355.957
516.136 275.545
516.201 221.157
516.331 154.200
516.460 115.974
516.590 91.9561
516.848 64.3140
517.107 49.3586
517.366 40.2191
517.625 34.1492
517.884 29.8696
518.402 24.2936
518.920 20.8629
519.438 18.5583
519.956 16.9112
520.992 14.7227
522.028 13.3379
523.064 12.3823
524.099 11.6817
526.171 10.7175
528.243 10.0782
530.315 9.61708
532.386 9.26409
536.530 8.74808
540.673 8.37681
544.817 8.08753
545.852 8.02505
546.888 7.96860
547.406 7.94590
547.924 7.93673
548.183 7.94956
548.442 8.00880
548.572 8.09713
548.636 8.18328
548.701 8.33224
548.766 8.62018
548.798 8.87464
548.831 9.27771
548.863 9.97162
548.895 11.2883
548.911 12.4280
548.928 14.1723
548.944 16.9372
548.960 21.3199
548.980 29.4240
549.000 34.7896
549.020 29.3806
549.040 21.3177
549.054 17.3523
549.069 14.7185
549.083 12.9687
549.097 11.7777
549.125 10.3387
549.154 9.55246
549.182 9.07869
549.210 8.77470
549.267 8.42032
549.324 8.22993
549.380 8.11562
549.494 7.98974
549.607 7.92400
549.721 7.88406
549.948 7.83690
550.401 7.78670
550.855 7.75343
551.762 7.69959
552.670 7.65090
556.299 7.46481
558.114 7.36649
559.021 7.31218
559.929 7.25099
560.836 7.17762
561.290 7.13361
561.744 7.08302
561.970 7.05545
562.197 7.02777
562.424 7.00406
562.651 6.99730
562.764 7.01160
562.878 7.05342
562.991 7.15241
563.105 7.38117
563.218 7.94810
563.275 8.54259
563.331 9.62304
563.388 11.7942
563.417 13.7560
563.445 16.8843
563.473 22.2552
563.502 32.2333
563.516 40.6126
563.530 52.9971
563.544 71.7185
563.558 99.7961
563.569 128.390
563.579 161.651
563.600 208.180
563.621 174.347
563.642 115.656
563.663 76.1256
563.684 53.4684
563.705 40.1512
563.726 31.8922
563.747 26.4237
563.768 22.6619
563.810 17.9305
563.852 15.1807
563.895 13.4339
563.979 11.4048
564.063 10.2998
564.147 9.62209
564.231 9.17106
564.316 8.85246
564.484 8.43641
564.652 8.17956
564.821 8.00606
564.989 7.88114
565.326 7.71271
565.663 7.60333
