Gd-156(n,g) ENDF/B-VII.1
Energy(eV) XS(b)
1.00000E-05 90.1816
1.25000E-05 80.6609
1.50000E-05 73.6330
2.00000E-05 63.7681
2.75000E-05 54.3816
3.50000E-05 48.2042
4.25000E-05 43.7446
5.00000E-05 40.3305
6.25000E-05 36.0727
7.50000E-05 32.9298
0.000100000 28.5180
0.000125000 25.5073
0.000150000 23.2849
0.000200000 20.1654
0.000275000 17.1971
0.000350000 15.2437
0.000425000 13.8334
0.000500000 12.7538
0.000625000 11.4074
0.000750000 10.4136
0.00100000 9.01850
0.00125000 8.06646
0.00150000 7.36371
0.00200000 6.37728
0.00275000 5.43871
0.00350000 4.82104
0.00425000 4.37514
0.00500000 4.03380
0.00625000 3.60811
0.00750000 3.29389
0.0100000 2.85286
0.0125000 2.55191
0.0150000 2.32979
0.0200000 2.01803
0.0253000 1.79460
0.0314750 1.60933
0.0376500 1.47179
0.0500000 1.27775
0.0625000 1.14339
0.0750000 1.04426
0.100000 0.905200
0.125000 0.810396
0.150000 0.740482
0.200000 0.642484
0.275000 0.549465
0.350000 0.488433
0.500000 0.410989
0.750000 0.338802
1.00000 0.296265
1.50000 0.246701
2.00000 0.217980
2.75000 0.191730
3.50000 0.175466
5.00000 0.157009
7.50000 0.145015
10.0000 0.144512
15.0000 0.167839
20.0000 0.241548
23.2944 0.365267
24.9416 0.488338
26.5889 0.711772
27.4125 0.899492
28.2361 1.18585
29.0597 1.65525
29.8833 2.50711
30.2951 3.22248
30.7069 4.31244
31.1187 6.09470
31.5305 9.31306
31.7364 11.9998
31.9423 16.0669
32.0453 18.9346
32.1482 22.6541
32.1997 24.9430
32.2254 26.2208
32.2512 27.5996
32.2640 28.3306
32.2769 29.0913
32.2898 29.8833
32.3026 30.7082
32.3155 31.5679
32.3284 32.4645
32.3541 34.3761
32.3798 36.4634
32.4056 38.7477
32.4313 41.2547
32.4571 44.0131
32.5085 50.4362
32.5600 58.3793
32.6115 68.3662
32.6630 81.1564
32.7144 97.9104
32.7659 120.436
32.8174 151.724
32.8689 196.929
32.9203 265.650
32.9718 377.204
32.9975 460.920
33.0233 575.272
33.0490 736.725
33.0748 973.797
33.1005 1339.11
33.1262 1933.76
33.1520 2958.02
33.1777 4769.30
33.2039 7628.16
33.2300 9533.00
33.2562 7624.65
33.2823 4763.74
33.2986 3499.35
33.3150 2616.90
33.3476 1571.41
33.3803 1027.96
33.4129 718.641
33.4456 528.318
33.4782 403.803
33.5435 256.958
33.6088 177.353
33.6741 129.584
33.8047 77.6829
33.9353 51.6388
34.0660 36.7667
34.1966 27.4903
34.3272 21.3213
34.5884 13.8879
34.8496 9.75433
35.1108 7.22323
35.3720 5.56300
35.8945 3.59124
36.4169 2.51112
36.9393 1.85709
37.4617 1.43189
38.5066 0.932183
39.5514 0.662053
40.5963 0.500600
41.6412 0.397143
43.7309 0.278732
45.8206 0.218321
50.0000 0.169037
53.3788 0.162613
55.0681 0.169171
55.9128 0.184421
56.3352 0.229000
56.4408 0.268643
56.5463 0.364990
56.5991 0.475582
56.6519 0.711910
56.6783 0.943652
56.7047 1.34979
56.7311 2.12924
56.7443 2.78523
56.7575 3.72229
56.7788 5.85297
56.8000 7.27425
56.8213 5.85535
56.8425 3.72546
56.8575 2.68598
56.8724 1.99393
56.9023 1.21938
56.9322 0.839457
56.9622 0.631166
57.0220 0.425975
57.0818 0.333073
57.2015 0.254510
57.3211 0.223469
57.7997 0.192733
58.7569 0.191433
60.6713 0.211128
64.5000 0.289146
66.4144 0.357936
68.3288 0.464387
70.2431 0.641974
71.2003 0.788519
71.6789 0.925332
71.9182 1.14700
71.9780 1.30600
72.0379 1.64172
72.0678 1.97592
72.0977 2.58018
72.1276 3.80537
72.1426 4.89762
72.1575 6.53538
72.1788 9.89166
72.2000 12.1316
72.2213 9.90400
72.2425 6.55810
72.2577 4.90581
72.2729 3.81399
72.3033 2.60429
72.3336 2.01884
72.3640 1.70278
72.4248 1.40010
72.4855 1.27178
72.7285 1.16616
73.2145 1.26509
74.1864 1.67186
75.1584 2.36095
76.1303 3.61674
76.3733 4.09286
76.6163 4.67162
76.7378 5.00898
76.7985 5.19174
76.8593 5.38481
76.9200 5.58903
76.9808 5.80521
77.0415 6.03439
77.1023 6.27754
77.1630 6.53592
77.2238 6.81077
77.2845 7.10354
77.3452 7.41575
77.4667 8.10609
77.5882 8.89851
77.7097 9.81437
77.8312 10.8805
77.9527 12.1319
78.0742 13.6141
78.3172 17.5340
78.5602 23.4415
78.6817 27.5892
78.8032 32.9478
78.9247 40.0391
79.0462 49.6983
79.1677 63.3319
79.2891 83.4502
79.4106 114.910
79.5321 168.078
79.5929 209.580
79.6536 268.402
79.7144 355.527
79.7751 491.971
79.8359 721.807
79.8966 1147.55
79.9270 1505.25
79.9574 2038.01
79.9877 2854.14
80.0181 4107.73
80.0591 6572.19
80.1000 8220.74
80.1410 6581.00
80.1819 4113.03
80.2206 2595.21
80.2593 1718.24
80.2980 1200.24
80.3367 878.120
80.4142 522.470
80.4916 343.921
80.5690 242.701
80.6464 180.118
80.8012 110.208
80.9561 74.2105
81.1109 53.3105
81.2657 40.1219
81.4205 31.2746
81.7302 20.5185
82.0399 14.4815
82.3495 10.7604
82.6592 8.30691
83.2785 5.37635
83.8978 3.76069
84.5171 2.77717
85.1364 2.13476
86.3751 1.37502
87.6137 0.960554
88.8523 0.710279
90.0910 0.547903
92.5682 0.357544
95.0455 0.255084
97.5227 0.194402
100.000 0.156477
102.614 0.132002
105.229 0.122067
106.536 0.127240
107.843 0.155907
108.496 0.200925
108.823 0.246866
109.150 0.330990
109.477 0.509170
109.640 0.683632
109.804 0.994554
109.885 1.25028
109.967 1.63145
110.049 2.23540
110.130 3.27552
110.212 5.29569
110.253 7.10752
110.294 10.0316
110.335 15.2076
110.375 25.5055
110.396 34.8444
110.416 49.8765
110.437 75.3721
110.457 119.619
110.468 153.317
110.479 191.496
110.500 239.476
110.522 191.466
110.543 119.578
110.563 76.8153
110.582 51.6727
110.601 36.4616
110.621 26.9181
110.660 16.2081
110.699 10.7725
110.737 7.65674
110.776 5.71981
110.854 3.54723
110.932 2.42121
111.010 1.76601
111.087 1.35137
111.165 1.07256
111.320 0.732531
111.476 0.541208
111.787 0.344622
112.098 0.250713
112.409 0.198537
113.030 0.145305
114.274 0.105405
115.518 0.0903011
120.492 0.0742493
125.467 0.0749400
130.441 0.0856196
135.416 0.114059
137.903 0.143478
140.390 0.197438
142.877 0.312607
144.121 0.427086
145.365 0.635617
145.986 0.811369
146.608 1.07996
147.230 1.52090
147.852 2.32134
148.163 2.99282
148.474 4.01396
148.785 5.67774
148.940 6.93422
148.979 7.31451
149.018 7.72614
149.057 8.17502
149.095 8.66319
149.134 9.19818
149.173 9.78466
149.212 10.4294
149.251 11.1386
149.290 11.9252
149.329 12.7961
149.406 14.8552
149.484 17.4606
149.562 20.8141
149.640 25.2377
149.717 31.2391
149.795 39.6784
149.873 52.0360
149.950 71.1819
150.028 103.116
150.067 127.754
150.106 162.259
150.145 212.567
150.184 289.449
150.223 415.273
150.261 637.118
150.281 815.834
150.300 1069.30
150.320 1436.69
150.339 1967.29
150.370 3153.06
150.400 3950.21
150.431 3161.06
150.461 1973.22
150.484 1352.88
150.508 955.596
150.531 699.936
150.555 530.256
150.601 330.569
150.648 224.179
150.695 161.319
150.742 121.405
150.835 75.7231
150.929 51.6054
151.022 37.4002
151.116 28.3366
151.209 22.2062
151.396 14.6867
151.584 10.4308
151.771 7.79182
151.958 6.04479
152.332 3.94689
152.706 2.78474
153.080 2.07448
153.454 1.60935
154.203 1.05753
154.951 0.755635
155.699 0.573097
156.447 0.454705
157.944 0.316363
159.440 0.242776
162.434 0.174343
165.427 0.149523
168.420 0.144311
174.406 0.170339
177.399 0.203011
180.392 0.256704
183.385 0.347231
186.379 0.512322
187.875 0.650260
189.372 0.858893
190.868 1.19664
191.243 1.31407
191.617 1.45045
191.804 1.52708
191.991 1.61016
192.178 1.70051
192.365 1.79892
192.552 1.90651
192.739 2.02439
192.926 2.15396
193.113 2.29673
193.300 2.45477
193.487 2.63026
193.861 3.04482
194.236 3.56969
194.610 4.24803
194.984 5.14733
195.358 6.37675
195.732 8.12351
196.106 10.7279
196.480 14.8709
196.855 22.0688
197.042 27.8589
197.229 36.3167
197.416 49.3735
197.603 71.0540
197.790 110.973
197.883 144.752
197.977 196.309
198.071 280.160
198.164 427.277
198.258 710.376
198.304 949.846
198.351 1292.97
198.426 2071.43
198.500 2609.53
198.575 2105.09
198.649 1319.05
198.734 763.427
198.818 475.294
198.902 318.558
198.987 226.843
199.071 169.263
199.156 131.139
199.325 85.7001
199.493 60.9690
199.662 46.2891
200.000 31.2602
200.216 26.9825
200.431 25.4260
200.647 26.5756
200.862 31.5888
200.970 36.5517
201.078 44.3843
201.131 49.9566
201.158 53.3229
201.185 57.1463
201.199 59.2676
201.212 61.5405
201.226 63.9787
201.239 66.5777
201.253 69.3936
201.266 72.4040
201.293 79.1845
201.320 87.1617
201.347 96.5493
201.374 107.776
201.401 121.231
201.428 137.656
201.455 157.806
201.482 182.956
201.509 214.848
201.536 256.204
201.562 310.550
201.589 384.232
201.616 486.078
201.643 632.157
201.670 846.440
201.697 1169.31
201.724 1655.03
201.762 2637.18
201.800 3257.97
201.838 2578.03
201.876 1608.39
201.918 946.170
201.960 596.841
202.002 404.094
202.044 289.774
202.086 217.371
202.128 168.955
202.212 110.632
202.296 78.2461
202.380 58.5021
202.548 36.6322
202.716 25.4059
202.884 18.8572
203.219 11.8468
203.555 8.31450
203.891 6.25328
204.563 4.01436
205.234 2.85396
205.906 2.15877
207.249 1.38344
208.592 0.973628
209.935 0.727183
212.622 0.454932
215.308 0.314545
217.995 0.232505
223.367 0.145531
228.740 0.103715
234.113 0.0830316
236.799 0.0794825
239.486 0.0858768
240.829 0.100842
241.501 0.117195
242.172 0.148104
242.844 0.215345
243.180 0.282558
243.515 0.404749
243.683 0.507170
243.851 0.662623
244.019 0.915056
244.187 1.36547
244.271 1.73679
244.355 2.29060
244.439 3.17144
244.523 4.69240
244.607 7.66821
244.649 10.3516
244.691 14.7116
244.733 22.5068
244.754 28.8941
244.775 38.3248
244.796 52.9500
244.817 76.9743
244.827 94.9013
244.838 118.874
244.848 151.133
244.859 193.683
244.869 247.955
244.879 309.930
244.900 386.853
244.910 364.054
244.921 309.349
244.942 193.682
244.955 141.896
244.968 106.104
244.994 63.7172
245.020 41.7003
245.046 29.1728
245.072 21.4677
245.098 16.4251
245.150 10.4778
245.202 7.24874
245.254 5.31467
245.358 3.21190
245.462 2.15501
245.566 1.55159
245.670 1.17479
245.774 0.923906
245.982 0.621015
246.190 0.452257
246.398 0.348601
246.606 0.280441
247.022 0.199073
247.438 0.154163
248.271 0.108676
249.103 0.0870863
249.935 0.0750602
251.600 0.0627174
254.929 0.0552704
256.593 0.0632953
257.009 0.0733741
257.425 0.101945
257.633 0.140359
257.737 0.177347
257.841 0.242065
257.946 0.370975
257.998 0.489299
258.050 0.685998
258.102 1.04768
258.128 1.35331
258.154 1.81871
258.180 2.57170
258.206 3.88558
258.232 6.38729
258.245 8.47718
258.258 11.4470
258.279 18.2923
258.300 22.8228
258.321 18.2595
258.343 11.4488
258.363 7.24495
258.383 4.81487
258.403 3.37892
258.423 2.48547
258.463 1.49894
258.503 1.00427
258.543 0.722886
258.584 0.548847
258.664 0.354534
258.744 0.254246
258.825 0.196029
258.985 0.134492
259.146 0.104361
259.307 0.0873825
259.628 0.0698902
260.271 0.0567420
260.914 0.0518195
263.485 0.0463686
268.627 0.0448304
278.912 0.0482992
289.196 0.0586310
299.481 0.0803259
304.623 0.0992827
309.765 0.128552
314.908 0.176790
320.050 0.264428
322.621 0.337958
325.192 0.449830
326.478 0.529109
327.121 0.577192
327.763 0.632397
328.085 0.663118
328.406 0.696206
328.728 0.731909
329.049 0.770511
329.370 0.812337
329.692 0.857756
330.013 0.907193
330.335 0.961119
330.656 1.02014
330.977 1.08488
331.620 1.23478
332.263 1.41875
332.906 1.64796
333.549 1.93860
334.191 2.31476
334.834 2.81366
335.477 3.49500
336.120 4.46023
336.762 5.89156
337.405 8.14458
338.048 11.9887
338.369 15.0186
338.691 19.3529
339.012 25.8518
339.334 36.2052
339.655 54.0766
339.816 68.2362
339.976 88.4720
340.137 118.527
340.298 165.092
340.458 240.126
340.619 362.338
340.810 579.535
341.000 725.992
341.191 582.688
341.381 364.654
341.519 255.666
341.656 183.885
341.794 136.544
341.931 104.517
342.206 66.0721
342.481 45.1752
342.756 32.7053
343.031 24.7228
343.581 15.5040
344.132 10.6071
344.682 7.70660
345.232 5.85085
345.782 4.59337
346.882 3.04916
347.982 2.17423
349.082 1.63193
350.183 1.27344
352.383 0.845717
354.583 0.612862
356.784 0.475998
358.984 0.393668
363.385 0.330435
365.585 0.345689
367.786 0.411158
369.986 0.587430
371.086 0.774553
372.186 1.12241
372.736 1.41718
373.287 1.86741
373.837 2.60299
374.387 3.92456
374.524 4.42086
374.662 5.02027
374.731 5.36824
374.799 5.75395
374.868 6.18433
374.937 6.66510
375.006 7.20604
375.074 7.81671
375.143 8.50959
375.212 9.29888
375.281 10.2060
375.349 11.2524
375.418 12.4718
375.487 13.8999
375.625 17.6152
375.762 23.0477
375.900 31.4420
375.968 37.4708
376.037 45.3894
376.106 56.1017
376.175 71.0199
376.243 92.6859
376.312 125.612
376.381 178.927
376.450 271.717
376.484 345.115
376.518 448.355
376.553 595.688
376.587 803.989
376.644 1285.20
376.700 1601.23
376.757 1276.82
376.813 797.351
376.862 520.774
376.912 354.106
376.961 252.177
377.010 187.215
377.109 113.550
377.207 75.6516
377.306 53.8184
377.404 40.1909
377.601 24.8145
377.798 16.8173
377.995 12.1475
378.192 9.18593
378.389 7.19338
378.784 4.76109
379.178 3.39028
379.572 2.54247
379.966 1.98180
380.754 1.30949
381.542 0.936745
382.330 0.708495
383.119 0.558449
384.695 0.379113
386.271 0.279599
389.424 0.177671
392.577 0.128378
395.729 0.100445
402.035 0.0714193
408.340 0.0581524
414.646 0.0531562
420.951 0.0585640
422.527 0.0655567
424.104 0.0844323
424.892 0.109659
425.286 0.134390
425.680 0.178960
426.074 0.272599
426.271 0.364253
426.468 0.527981
426.567 0.663349
426.665 0.865868
426.764 1.18888
426.862 1.75068
426.961 2.85919
427.010 3.87027
427.059 5.53314
427.109 8.55801
427.133 11.0757
427.158 14.8572
427.183 20.8917
427.207 31.1096
427.232 49.8095
427.244 64.8613
427.256 85.6367
427.267 109.752
427.278 137.073
427.300 171.403
427.322 137.075
427.344 85.6354
427.367 51.0647
427.391 32.4568
427.414 22.0524
427.438 15.8288
427.461 11.8654
427.484 9.20549
427.531 5.98899
427.578 4.20266
427.625 3.11301
427.718 1.91111
427.812 1.29940
427.906 0.946842
427.999 0.725499
428.093 0.577710
428.280 0.398550
428.467 0.298472
428.841 0.196756
429.216 0.148990
429.590 0.123091
430.339 0.0980541
431.836 0.0831983
433.333 0.0823448
436.328 0.0957999
439.323 0.128249
442.317 0.200763
443.815 0.273410
445.312 0.405795
446.061 0.517226
446.810 0.687258
447.558 0.965682
448.307 1.46905
448.681 1.88973
449.056 2.52670
449.430 3.55903
449.524 3.91775
449.617 4.33418
449.711 4.82136
449.804 5.39561
449.898 6.08050
449.991 6.90546
450.085 7.91136
450.179 9.15517
450.272 10.7181
450.366 12.7190
450.459 15.3376
450.553 18.8512
450.647 23.7286
450.740 30.7639
450.834 41.4302
450.927 58.6604
451.021 89.0966
451.068 113.758
451.114 149.771
451.161 204.806
451.208 293.404
451.255 443.692
451.302 703.790
451.351 1126.74
451.400 1409.31
451.449 1128.18
451.499 705.566
451.548 432.314
451.598 280.317
451.647 192.996
451.697 139.757
451.747 105.389
451.796 82.0913
451.895 53.6338
451.995 37.6616
452.094 27.8667
452.292 16.9962
452.491 11.4296
452.689 8.21132
452.888 6.18452
453.086 4.82800
453.483 3.18120
453.880 2.25853
454.277 1.69053
454.674 1.31647
455.468 0.870571
456.261 0.625743
457.055 0.477736
457.849 0.382156
459.437 0.272469
461.024 0.217787
464.199 0.183459
467.375 0.216920
468.962 0.270603
470.550 0.378119
471.344 0.471647
472.137 0.616277
472.931 0.855167
473.725 1.28958
474.122 1.65358
474.519 2.20581
474.916 3.10204
475.114 3.77600
475.213 4.19968
475.313 4.69990
475.412 5.29689
475.511 6.01574
475.610 6.89286
475.660 7.40567
475.709 7.97826
475.809 9.34489
475.908 11.0948
476.007 13.3879
476.106 16.4735
476.206 20.7665
476.305 26.9701
476.404 36.4085
476.503 51.7520
476.553 63.2776
476.602 79.0362
476.652 101.312
476.702 134.086
476.751 184.673
476.801 267.236
476.850 409.972
476.900 663.683
476.950 1061.80
477.000 1327.15
477.050 1061.66
477.100 663.522
477.132 484.829
477.164 361.275
477.227 215.843
477.290 140.690
477.354 98.1901
477.417 72.0889
477.481 55.0723
477.608 35.0390
477.734 24.1905
477.861 17.6913
478.115 10.6324
478.369 7.09190
478.622 5.07256
478.876 3.81469
479.130 2.98066
479.637 1.98883
480.145 1.48348
480.398 1.37020
480.652 1.42874
480.779 1.63767
480.906 2.27124
480.969 3.07384
481.001 3.78603
481.033 4.91810
481.064 6.85499
481.096 10.5148
481.112 13.6577
481.128 18.3907
481.144 25.8449
481.160 37.4974
481.180 59.5187
481.200 74.0722
481.220 59.3694
481.241 37.4525
481.253 27.6293
481.266 20.8425
481.291 12.8054
481.317 8.61638
481.342 6.24170
481.368 4.77336
481.393 3.81414
481.444 2.67624
481.495 2.05155
481.546 1.67177
481.647 1.24660
481.851 0.882548
482.054 0.719633
482.461 0.556283
482.868 0.464537
483.682 0.353040
484.495 0.283953
486.123 0.202146
487.750 0.156965
491.005 0.115423
492.633 0.117498
493.039 0.128502
493.446 0.162378
493.650 0.209029
493.751 0.254264
493.853 0.333735
493.955 0.492505
494.006 0.639052
494.057 0.883081
494.107 1.33516
494.133 1.71863
494.158 2.30561
494.184 3.26720
494.209 4.95878
494.235 8.23469
494.247 11.0164
494.260 15.0223
494.280 23.9990
494.300 29.9423
494.320 23.9522
494.340 15.0233
494.362 8.84186
494.384 5.59406
494.407 3.80238
494.429 2.74056
494.451 2.06876
494.473 1.62003
494.517 1.07993
494.561 0.780797
494.606 0.599339
494.694 0.399617
494.782 0.298029
494.871 0.239572
495.048 0.178263
495.401 0.131633
495.755 0.114443
497.170 0.0979176
500.000 0.102237
503.897 0.140137
505.845 0.183668
507.794 0.266141
508.768 0.336709
509.742 0.445232
510.717 0.624026
511.691 0.949010
512.178 1.22151
512.665 1.63538
513.152 2.30821
513.396 2.81501
513.517 3.13413
513.639 3.51092
513.761 3.96093
513.883 4.50395
514.005 5.16746
514.065 5.55583
514.126 5.98909
514.187 6.47608
514.248 7.02512
514.370 8.35585
514.492 10.1043
514.613 12.4623
514.735 15.7548
514.857 20.5416
514.979 27.8754
515.100 39.9024
515.161 49.0287
515.222 61.6169
515.283 79.6127
515.344 106.485
515.405 148.805
515.466 219.844
515.527 347.626
515.557 448.638
515.588 586.231
515.644 938.185
515.700 1171.99
515.756 937.003
515.813 585.780
515.877 336.287
515.942 208.194
516.007 138.861
516.072 98.4165
516.136 73.0427
516.201 56.2443
516.331 36.1559
516.460 25.1291
516.590 18.4548
516.848 11.1471
517.107 7.45025
517.366 5.32825
517.625 3.99956
517.884 3.11346
518.402 2.04159
518.920 1.44317
519.438 1.07545
519.956 0.833464
520.992 0.544821
522.028 0.385783
523.064 0.288891
524.099 0.225508
526.171 0.150291
528.243 0.108998
530.315 0.0838757
532.386 0.0674469
536.530 0.0480073
540.673 0.0376432
544.817 0.0331217
545.852 0.0338616
546.888 0.0381769
547.406 0.0450374
547.924 0.0648969
548.183 0.0920256
548.442 0.165334
548.572 0.260515
548.636 0.349964
548.701 0.502053
548.766 0.792738
548.798 1.04827
548.831 1.45200
548.863 2.14577
548.895 3.46058
548.911 4.59797
548.928 6.33832
548.944 9.09647
548.960 13.4677
548.980 21.5501
549.000 26.9012
549.020 21.5079
549.040 13.4686
549.054 9.51515
549.069 6.88950
549.083 5.14548
549.097 3.95862
549.125 2.52522
549.154 1.74277
549.182 1.27190
549.210 0.970307
549.267 0.620004
549.324 0.433211
549.380 0.322261
549.494 0.202805
549.607 0.143287
549.721 0.109472
549.948 0.0744211
550.401 0.0481061
550.855 0.0384543
551.762 0.0312377
552.670 0.0285979
556.299 0.0277043
558.114 0.0314900
559.021 0.0359220
559.929 0.0444524
560.836 0.0632092
561.290 0.0820723
561.744 0.116538
561.970 0.145566
562.197 0.189794
562.424 0.262058
562.651 0.392007
562.764 0.500053
562.878 0.662570
562.991 0.923588
563.105 1.38207
563.218 2.30073
563.275 3.15155
563.331 4.57923
563.388 7.24263
563.417 9.53280
563.445 13.0626
563.473 18.9228
563.502 29.4494
563.516 38.0775
563.530 50.6035
563.544 69.1792
563.558 96.4419
563.569 123.582
563.579 154.296
563.600 192.871
