Ta-181(n,tot) ENDF/B-VII.1
Energy(eV) XS(b)
1.00000E-05 1061.21
1.25000E-05 949.825
1.50000E-05 867.605
2.00000E-05 752.194
2.75000E-05 642.381
3.50000E-05 570.111
4.25000E-05 517.938
5.00000E-05 477.997
6.25000E-05 428.186
7.50000E-05 391.416
0.000100000 339.804
0.000125000 304.583
0.000150000 278.583
0.000200000 242.089
0.000275000 207.365
0.000350000 184.513
0.000425000 168.016
0.000500000 155.387
0.000625000 139.637
0.000750000 128.011
0.00100000 111.693
0.00125000 100.558
0.00150000 92.3391
0.00200000 80.8032
0.00275000 69.8286
0.00350000 62.6073
0.00425000 57.3951
0.00500000 53.4057
0.00625000 48.4315
0.00750000 44.7609
0.0100000 39.6108
0.0125000 36.0983
0.0150000 33.5071
0.0200000 29.8730
0.0253000 27.2713
0.0314750 25.1162
0.0376500 23.5183
0.0500000 21.2679
0.0625000 19.7134
0.0750000 18.5692
0.100000 16.9699
0.125000 15.8849
0.150000 15.0888
0.200000 13.9816
0.275000 12.9457
0.350000 12.2798
0.500000 11.4663
0.750000 10.7830
0.840000 10.6418
1.00000 10.4753
1.50000 10.4443
2.00000 11.1023
2.56290 13.3063
2.84435 15.7387
3.12580 20.3535
3.39435 29.7379
3.52863 38.7621
3.66290 54.4419
3.79718 85.1870
3.86431 112.963
3.93145 158.343
3.99859 239.856
4.03216 307.337
4.06573 408.426
4.09929 569.446
4.13286 848.060
4.14965 1070.05
4.16643 1390.08
4.18322 1873.36
4.20000 2646.41
4.21290 3594.51
4.22580 5100.08
4.23870 7605.94
4.25160 11851.4
4.26580 18967.5
4.28000 23724.9
4.29425 18995.4
4.30850 11881.1
4.31931 8196.28
4.33011 5820.85
4.34092 4283.29
4.35172 3258.07
4.37333 2045.21
4.39494 1394.50
4.41655 1009.48
4.43816 764.209
4.48138 482.207
4.52459 332.852
4.56781 244.460
4.61103 187.884
4.65425 149.502
4.74069 102.242
4.82713 75.3312
4.91356 58.5451
5.00000 47.3618
5.15625 34.7965
5.31250 27.4113
5.46875 22.6918
5.62500 19.4854
5.93750 15.5175
6.25000 13.2377
6.56250 11.8058
6.87500 10.8541
7.50000 9.76561
8.12500 9.40218
8.43750 9.51850
8.75000 9.97462
9.06250 11.1053
9.21875 12.1792
9.37500 13.9171
9.53125 16.8943
9.68750 22.4670
9.76563 27.2118
9.84375 34.4706
9.92188 46.3126
10.0000 67.4350
10.0776 109.959
10.1163 149.568
10.1551 216.186
10.1745 267.859
10.1939 340.565
10.2133 447.120
10.2327 611.336
10.2520 881.564
10.2714 1363.98
10.2811 1754.11
10.2908 2313.62
10.3005 3131.77
10.3102 4324.28
10.3251 6941.05
10.3400 8709.02
10.3549 7002.01
10.3698 4401.11
10.3837 2810.16
10.3976 1880.92
10.4115 1326.71
10.4253 979.355
10.4531 592.675
10.4809 396.812
10.5086 284.931
10.5364 215.330
10.5919 136.953
10.6474 96.1578
10.7030 72.2371
10.7585 56.9975
10.8140 46.6797
10.9251 33.9670
11.0361 26.6994
11.1472 22.1363
11.2582 19.0719
11.4803 15.3163
11.7024 13.1733
11.9246 11.8316
12.1467 10.9446
12.5909 9.97785
12.8130 9.82347
13.0351 9.97556
13.2572 10.7685
13.3682 11.7283
13.4793 13.5937
13.5904 17.6591
13.6459 21.6526
13.7014 28.6941
13.7569 42.7218
13.7847 55.5390
13.8125 76.6465
13.8402 114.796
13.8541 146.374
13.8680 193.419
13.8819 267.193
13.8957 390.135
13.9027 483.078
13.9096 608.741
13.9166 779.993
13.9235 1011.48
13.9301 1296.15
13.9368 1622.20
13.9500 2036.65
13.9633 1639.99
13.9765 1033.73
13.9883 676.138
14.0000 461.880
14.0118 331.304
14.0236 248.261
14.0471 154.381
14.0706 106.113
14.0942 78.2871
14.1177 60.8525
14.1647 41.0834
14.2118 30.7181
14.2589 24.6027
14.3059 20.6847
14.3530 18.0175
14.4471 14.7040
14.5412 12.7851
14.7294 10.7270
14.9177 9.67292
15.1059 9.04029
15.4824 8.31323
15.8589 7.89550
16.2353 7.61333
16.9883 7.23722
17.7412 6.99433
18.4941 6.87641
18.8706 6.92001
19.2471 7.18093
19.4353 7.53403
19.6235 8.29960
19.7177 9.02864
19.8118 10.2574
19.9059 12.5283
19.9530 14.4451
20.0000 17.3567
20.0674 25.0423
20.1011 32.1151
20.1348 43.8419
20.1684 65.2469
20.1853 83.1531
20.2021 110.072
20.2190 152.859
20.2358 225.403
20.2442 281.169
20.2527 357.672
20.2611 463.687
20.2695 609.535
20.2771 781.051
20.2848 977.691
20.3000 1228.46
20.3076 1160.37
20.3153 990.705
20.3305 625.812
20.3397 468.656
20.3488 357.102
20.3671 221.847
20.3854 149.836
20.4037 108.134
20.4221 82.1414
20.4404 64.9491
20.4770 44.4283
20.5136 33.1397
20.5502 26.2819
20.6234 18.7143
20.6967 14.8404
20.7699 12.5871
20.9164 10.1916
21.0628 9.00589
21.2093 8.33644
21.5022 7.68108
21.7951 7.48448
22.0881 7.68126
22.2345 8.06502
22.3810 9.04603
22.4542 10.2271
22.4908 11.2910
22.5274 13.0490
22.5641 16.2998
22.5824 19.0838
22.6007 23.3953
22.6190 30.5679
22.6373 43.6292
22.6556 70.2336
22.6648 93.9697
22.6739 129.607
22.6870 203.068
22.7000 252.627
22.7131 204.652
22.7261 131.669
22.7350 96.6979
22.7440 73.1086
22.7619 46.3223
22.7797 33.0069
22.7976 25.6664
22.8333 18.4655
22.8691 15.3022
22.9406 12.9542
23.0120 12.5128
23.1550 13.8652
23.2980 17.8312
23.3694 21.4265
23.4409 27.0139
23.5124 36.1904
23.5839 52.5652
23.6196 65.9477
23.6554 85.6859
23.6911 116.408
23.7268 167.770
23.7626 262.588
23.7805 342.806
23.7983 464.868
23.8162 661.836
23.8341 1003.56
23.8519 1647.40
23.8609 2179.83
23.8698 2929.24
23.8849 4714.20
23.9000 5930.53
23.9151 4779.00
23.9302 3010.52
23.9420 2064.69
23.9538 1461.29
23.9656 1073.96
23.9774 817.284
24.0010 515.382
24.0246 354.090
24.0482 258.763
24.0718 198.049
24.1190 128.097
24.1662 90.8705
24.2134 68.7158
24.2606 54.4406
24.3078 44.6920
24.4023 32.5647
24.4967 25.5561
24.5911 21.1174
24.6855 18.1142
24.8743 14.3970
25.0631 12.2432
25.2519 10.8654
25.4408 9.91892
25.8184 8.71368
26.1960 7.98004
26.9513 7.11782
27.7066 6.60450
28.4619 6.25251
29.2171 6.07895
29.4060 6.14580
29.5948 6.46031
29.6892 6.93914
29.7364 7.41295
29.7836 8.24482
29.8308 9.87829
29.8544 11.3425
29.8780 13.7009
29.9016 17.8187
29.9252 25.8463
29.9370 32.9355
29.9488 44.0188
29.9606 62.0716
29.9724 91.8647
29.9862 144.587
30.0000 180.595
30.0138 146.637
30.0276 94.4216
30.0376 68.2598
30.0475 50.9473
30.0575 39.4848
30.0674 31.7005
30.0873 22.3103
30.1072 17.1674
30.1271 14.0781
30.1470 12.0857
30.1868 9.76227
30.2266 8.50872
30.2664 7.75403
30.3460 6.92231
30.5052 6.23401
30.6643 5.94490
31.3011 5.55823
31.9378 5.47545
32.5745 5.62731
33.2112 6.30670
33.5296 7.13048
33.8480 8.73569
34.1663 12.2235
34.3255 15.6382
34.4847 21.6715
34.5643 26.5900
34.6439 33.8705
34.7235 45.3321
34.7633 53.7251
34.8030 64.9808
34.8428 80.5898
34.8826 103.130
34.9224 137.441
34.9622 193.341
35.0020 293.348
35.0219 375.571
35.0418 497.361
35.0617 687.329
35.0816 1001.78
35.1015 1556.25
35.1214 2566.90
35.1407 4117.49
35.1600 5167.38
35.1793 4154.81
35.1986 2615.27
35.2193 1574.55
35.2399 1013.98
35.2606 700.738
35.2813 513.797
35.3020 395.327
35.3226 316.509
35.3640 223.437
35.4053 175.177
35.4466 150.084
35.5293 139.393
35.5706 149.983
35.6120 173.407
35.6533 215.889
35.6947 291.389
35.7360 432.960
35.7567 551.801
35.7773 729.781
35.7980 1009.60
35.8187 1475.99
35.8393 2303.33
35.8600 3819.90
35.8800 6153.40
35.9000 7755.50
35.9200 6264.17
35.9400 3957.63
35.9523 2945.71
35.9645 2231.44
35.9890 1371.82
36.0135 917.323
36.0380 655.176
36.0624 491.959
36.0869 384.022
36.1359 255.000
36.1849 183.753
36.2339 140.236
36.3318 91.7916
36.4298 66.6629
36.5277 51.8727
36.7236 35.9940
36.9195 28.2188
37.1154 24.1453
37.5072 21.9723
37.7031 23.4008
37.8990 27.1165
38.0949 34.6743
38.2908 49.9377
38.3888 63.2776
38.4867 83.8429
38.5847 117.374
38.6826 176.529
38.7316 224.250
38.7806 293.642
38.8295 399.534
38.8785 571.389
38.9275 874.511
38.9520 1118.98
38.9765 1473.37
39.0009 2009.15
39.0254 2857.09
39.0499 4259.91
39.0744 6617.42
39.1022 10717.0
39.1300 13560.1
39.1578 10981.7
39.1856 6950.80
39.2050 4974.26
39.2244 3645.05
39.2438 2752.40
39.2632 2139.12
39.3021 1389.90
39.3409 974.116
39.3797 721.981
39.4185 558.220
39.4962 365.820
39.5738 261.299
39.6514 198.124
39.7291 156.910
39.8067 128.461
39.9620 92.6064
40.1172 71.5524
40.2725 58.0310
40.4278 48.7666
40.7383 37.1161
41.0489 30.2346
41.3594 25.7630
41.6700 22.6540
42.2910 18.6523
42.9121 16.2074
43.5332 14.5653
44.1543 13.3868
45.3965 11.8031
46.6387 10.7814
47.2597 10.4013
47.8808 10.1204
48.1914 10.0703
48.3467 10.1122
48.5019 10.2663
48.6572 10.7060
48.7348 11.1913
48.8125 12.1067
48.8901 14.0542
48.9289 15.9273
48.9677 19.1533
49.0066 25.3425
49.0260 30.7695
49.0454 39.3149
49.0648 53.7561
49.0842 80.5215
49.0939 102.962
49.1036 136.230
49.1133 186.890
49.1230 264.181
49.1365 421.834
49.1500 530.898
49.1635 431.023
49.1770 275.653
49.1899 178.587
49.2027 122.332
49.2156 88.9978
49.2284 68.1867
49.2542 45.0778
49.2799 33.3644
49.3056 26.6576
49.3313 22.4666
49.3828 17.7133
49.4342 15.2083
49.4856 13.7181
49.5885 12.0886
49.6914 11.2458
49.7943 10.7413
50.0000 10.1692
50.1804 9.87989
50.3608 9.68022
50.7215 9.40792
51.4430 9.06360
52.8860 8.61556
54.3290 8.27735
55.0505 8.13333
55.4113 8.08681
55.5014 8.09461
55.5916 8.14433
55.6367 8.21889
55.6818 8.40370
55.7044 8.60603
55.7269 8.99924
55.7382 9.34333
55.7495 9.87364
55.7607 10.7205
55.7720 12.0841
55.7860 14.6314
55.8000 16.4094
55.8140 14.8215
55.8280 12.3181
55.8412 10.7608
55.8543 9.84787
55.8675 9.30150
55.8806 8.95762
55.9069 8.57108
55.9333 8.37163
55.9859 8.18022
56.0385 8.09141
56.1437 8.00705
56.2490 7.96380
56.6700 7.89253
56.8804 7.90825
56.9857 7.94904
57.0909 8.04350
57.1962 8.26969
57.2488 8.50065
57.3014 8.91481
57.3540 9.74623
57.3804 10.5054
57.4067 11.7484
57.4330 13.9657
57.4593 18.4241
57.4724 22.4879
57.4856 29.0364
57.4988 40.1576
57.5119 59.4350
57.5260 91.3838
57.5400 113.453
57.5541 93.2577
57.5681 61.7746
57.5795 44.4118
57.5908 33.4678
57.6022 26.5211
57.6135 21.9558
57.6363 16.6270
57.6590 13.7979
57.6817 12.1293
57.7044 11.0663
57.7498 9.83787
57.7953 9.17948
57.8407 8.78346
57.9316 8.34570
58.0224 8.11694
58.1133 7.97947
58.2950 7.82732
58.4767 7.76106
58.6585 7.79011
58.7493 7.90004
58.7948 8.02213
58.8402 8.24637
58.8856 8.69865
58.9083 9.10859
58.9310 9.77050
58.9538 10.9248
58.9765 13.1552
58.9878 15.1023
58.9992 18.1059
59.0106 22.9080
59.0219 30.6494
59.0360 45.0846
59.0500 55.1759
59.0641 46.1770
59.0781 32.0089
59.0938 22.0361
59.1094 16.7455
59.1251 13.8118
59.1407 12.0643
59.1564 10.9505
59.1720 10.2014
59.2033 9.28860
59.2346 8.77400
59.2660 8.45420
59.3286 8.08994
59.3912 7.89387
59.4538 7.77304
59.5790 7.63135
59.8295 7.49113
60.0799 7.41191
60.5808 7.31385
61.0818 7.27403
61.5827 7.35634
61.8331 7.52063
62.0836 7.90524
62.2088 8.27264
62.3340 8.87438
62.4593 9.91859
62.5845 11.8933
62.6471 13.5811
62.7097 16.1603
62.7723 20.3451
62.8350 27.7091
62.8976 42.2918
62.9289 55.4980
62.9602 76.9810
62.9915 115.035
63.0071 145.850
63.0228 190.737
63.0385 259.032
63.0541 367.937
63.0698 550.100
63.0854 860.600
63.1027 1389.46
63.1200 1755.80
63.1373 1421.98
63.1546 901.257
63.1680 624.696
63.1813 446.767
63.1946 331.655
63.2080 254.982
63.2347 164.159
63.2614 115.273
63.2881 86.2163
63.3147 67.6046
63.3681 46.0277
63.4215 34.4508
63.4749 27.5083
63.5283 23.0049
63.5816 19.9087
63.6884 16.0216
63.7951 13.7472
63.9019 12.2891
64.0086 11.2908
64.2222 10.0337
64.4357 9.28736
64.6492 8.79766
64.8627 8.45232
65.2897 7.99469
65.7167 7.69907
66.5707 7.31886
67.4248 7.06026
68.2788 6.85219
69.9869 6.48920
71.6949 6.12554
72.5490 5.92608
73.4030 5.70850
74.2570 5.48126
74.6840 5.38433
75.1110 5.34704
75.5381 5.52112
75.7516 5.84411
75.9651 6.60220
76.0718 7.33048
76.1786 8.52832
76.2853 10.6154
76.3921 14.5759
76.4455 17.9672
76.4989 23.1555
76.5522 31.5766
76.5789 37.8633
76.6056 46.3905
76.6323 58.3262
76.6590 75.6722
76.6857 102.112
76.7124 144.953
76.7390 220.354
76.7524 281.036
76.7657 368.751
76.7791 500.942
76.7924 708.946
76.8058 1050.66
76.8191 1620.50
76.8346 2629.96
76.8500 3336.32
76.8655 2707.91
76.8809 1718.02
76.8923 1209.74
76.9037 875.584
76.9151 655.616
76.9265 506.870
76.9493 328.109
76.9721 230.479
76.9949 171.911
77.0177 134.184
77.0633 90.3188
77.1089 66.9315
77.1545 53.2425
77.2457 39.8296
77.3369 36.9636
77.3825 39.4076
77.4281 46.1834
77.4737 61.6977
77.4965 76.2130
77.5193 99.8040
77.5421 140.796
77.5649 219.084
77.5763 286.407
77.5877 388.696
77.5991 549.044
77.6105 801.826
77.6253 1288.01
77.6400 1624.01
77.6548 1315.89
77.6695 836.289
77.6793 611.153
77.6891 456.672
77.7086 277.402
77.7282 185.902
77.7477 134.300
77.7673 102.613
77.7868 81.8461
77.8259 57.1595
77.8651 43.5511
77.9042 35.2034
77.9824 25.7984
78.0606 20.8009
78.1388 17.7777
78.2953 14.4385
78.4517 12.9322
78.5299 12.7249
78.6081 13.0593
78.6864 14.5011
78.7255 16.1394
78.7646 19.1350
78.8037 25.0726
78.8232 30.3395
78.8428 38.6424
78.8624 52.6239
78.8819 78.2138
78.9015 130.187
78.9112 176.266
78.9210 244.921
78.9283 313.746
78.9355 393.479
78.9500 498.583
78.9645 407.737
78.9790 262.660
78.9944 163.833
79.0097 109.556
79.0251 78.6939
79.0404 59.9673
79.0557 47.8677
79.0711 39.6405
79.1018 29.5111
79.1325 23.7352
79.1632 20.1175
79.2246 15.9640
79.2859 13.7152
79.3473 12.3294
79.4701 10.7216
79.5929 9.80926
79.7157 9.20976
79.9612 8.44422
80.4523 7.60829
80.9434 7.16751
81.4345 7.05891
81.6801 7.24288
81.9256 7.82191
82.0484 8.42160
82.1712 9.43584
82.2939 11.2348
82.4167 14.6904
82.4781 17.6700
82.5395 22.2504
82.6009 29.7240
82.6623 42.9590
82.6930 53.6913
82.7236 69.3759
82.7543 93.4805
82.7850 132.979
82.8157 203.664
82.8311 261.502
82.8464 346.505
82.8618 477.445
82.8771 689.749
82.8925 1053.23
82.9078 1689.86
82.9239 2731.68
82.9400 3453.11
82.9561 2797.40
82.9722 1772.11
82.9886 1097.44
83.0050 719.836
83.0213 502.185
83.0377 368.966
83.0541 282.584
83.0705 223.747
83.1032 151.360
83.1360 110.330
83.1688 84.8615
83.2343 56.1591
83.2998 41.1330
83.3653 32.2468
83.4308 26.5277
83.4963 22.6143
83.6274 17.7196
83.7584 14.8668
83.8894 13.0545
84.0205 11.8456
84.2825 10.5386
84.4136 10.3673
84.5446 10.6779
84.6756 12.0203
84.7411 13.5923
84.8066 16.5745
84.8722 22.8314
84.9049 28.7140
84.9377 38.5672
84.9704 56.6533
84.9868 71.7840
85.0032 94.4847
85.0196 130.329
85.0360 190.471
85.0441 236.160
85.0523 298.153
85.0605 382.948
85.0687 497.876
85.0844 804.359
85.1000 1019.52
85.1157 831.038
85.1313 531.229
85.1498 310.485
85.1682 197.069
85.1867 135.730
85.2051 99.7864
85.2236 77.1406
85.2420 62.0366
85.2790 43.7990
85.3159 33.6295
85.3528 27.3809
85.4266 20.4200
85.5004 16.9267
85.5743 15.3000
85.6112 15.2267
85.6481 16.1809
85.6665 17.5257
85.6850 20.2059
85.7035 25.8352
85.7127 30.8387
85.7219 38.2489
85.7360 54.6280
85.7500 65.9911
85.7641 55.4928
85.7781 39.1053
85.7929 27.9833
85.8077 21.8309
85.8226 18.2899
85.8374 16.1045
85.8670 13.6524
85.8966 12.3493
85.9559 10.9920
86.0152 10.2626
86.1337 9.42552
86.2522 8.91126
86.4893 8.25242
86.7263 7.81877
87.2004 7.24520
87.6746 6.86646
88.1487 6.61903
88.3857 6.56155
88.6228 6.59702
88.8598 6.86250
88.9784 7.21157
89.0969 7.91972
89.2154 9.51707
89.2747 11.1179
89.3340 13.9755
89.3932 19.7286
89.4229 25.0173
89.4525 33.7547
89.4821 49.5675
89.4969 62.6644
89.5117 82.1397
89.5266 112.622
89.5414 163.150
89.5562 252.381
89.5636 321.797
89.5710 415.013
89.5855 667.921
89.6000 842.582
89.6145 681.982
89.6290 432.574
89.6429 275.835
89.6569 185.494
89.6708 132.156
89.6847 98.9441
89.6986 77.1319
89.7125 62.1553
89.7404 43.5668
89.7682 32.9409
89.7961 26.3145
89.8518 18.8137
89.9074 14.8735
89.9631 12.5391
90.0745 10.0066
90.1859 8.72116
90.2973 7.97820
90.5200 7.23300
90.7428 7.05298
90.8541 7.19851
90.9655 7.64859
91.0769 8.80138
91.1326 9.99594
91.1883 12.1467
91.2439 16.4778
91.2718 20.4428
91.2996 26.9488
91.3275 38.6042
91.3553 62.1864
91.3692 83.8246
91.3832 118.987
91.3971 179.285
91.4110 285.273
91.4255 457.460
91.4400 576.108
91.4545 466.917
91.4690 297.085
91.4798 209.731
91.4905 152.532
91.5012 114.950
91.5120 89.6217
91.5335 59.2519
91.5550 42.7159
91.5765 32.8143
91.5979 26.4396
91.6409 19.0105
91.6839 15.0033
91.7269 12.5885
91.8128 9.92530
91.8988 8.54439
91.9847 7.72165
92.1567 6.80187
92.3286 6.29973
92.5005 5.97693
92.8443 5.56633
93.5320 5.09143
94.2196 4.79546
94.9072 4.63667
95.5949 4.72959
95.9387 5.00426
96.2825 5.73977
96.4544 6.63347
96.5404 7.45633
96.6264 8.87108
96.7123 11.6914
96.7553 14.3243
96.7983 18.8009
96.8412 27.3299
96.8627 34.7958
96.8842 46.5570
96.8950 55.1181
96.9057 66.4648
96.9165 81.9048
96.9272 103.465
96.9380 134.565
96.9487 180.781
96.9594 251.345
96.9702 359.330
96.9776 461.737
96.9851 580.115
97.0000 735.044
97.0075 697.787
97.0149 598.923
97.0298 383.148
97.0471 226.422
97.0644 145.183
97.0817 100.987
97.0990 75.0137
97.1163 58.6394
97.1336 47.7286
97.1682 34.6326
97.2028 27.4294
97.2374 23.1009
97.3066 18.5142
97.4450 15.5680
97.5834 15.5682
97.8601 19.5689
98.1369 29.4398
98.2753 38.3143
98.4136 52.1331
98.5520 74.8536
98.6904 115.274
98.7596 148.088
98.8288 196.056
98.8980 269.659
98.9672 389.957
99.0363 603.944
99.0709 777.907
99.1055 1031.93
99.1401 1419.36
99.1747 2039.42
99.2093 3080.60
99.2439 4863.24
99.2820 7895.82
99.3200 10014.9
99.3581 8131.38
99.3961 5159.23
99.4339 3234.82
99.4716 2140.57
99.5093 1501.55
99.5471 1106.79
99.5848 848.910
99.6226 672.320
99.6981 453.697
99.7735 328.919
99.8490 251.062
100.000 162.795
100.109 126.666
100.218 102.312
100.437 72.3112
100.655 55.0658
100.873 44.1334
101.309 31.3684
101.746 24.3022
102.182 19.8590
102.619 16.8356
102.837 15.7197
103.055 14.9950
103.164 15.0125
103.219 15.2845
103.273 15.9593
103.328 17.5562
103.355 19.1173
103.382 21.7472
103.410 26.5739
103.437 36.4905
103.451 45.6989
103.464 60.6069
103.478 86.1837
103.491 131.111
103.506 205.037
103.520 256.819
103.534 211.090
103.549 138.605
103.564 88.8743
103.579 61.7394
103.595 46.3853
103.610 37.1412
103.640 27.0788
103.671 22.0517
103.701 19.1622
103.732 17.3421
103.793 15.2105
103.915 13.2362
104.037 12.2736
104.281 11.3364
104.525 11.2726
104.647 11.7443
104.770 12.8761
104.892 15.2834
105.014 20.4568
105.075 25.1781
105.136 32.6464
105.197 45.1462
105.227 54.6274
105.258 67.6229
105.289 86.0325
105.319 112.890
105.350 153.999
105.380 220.697
105.411 337.550
105.426 431.202
105.441 564.549
105.456 763.963
105.472 1069.78
105.487 1561.76
105.502 2348.87
105.521 3830.39
105.540 4891.48
105.559 4027.89
105.578 2597.18
105.597 1665.46
105.615 1123.28
105.634 801.256
105.652 600.529
105.670 467.204
105.689 375.521
105.726 260.382
105.763 193.661
105.800 151.691
105.873 103.426
105.947 77.4979
106.021 61.8461
106.095 51.5663
106.169 44.3938
106.316 35.1767
106.464 29.6006
106.612 25.8976
106.759 23.2749
107.055 19.8091
107.350 17.6152
107.941 14.9535
108.531 13.3480
109.122 12.2343
110.303 10.7088
111.484 9.65663
112.075 9.26887
112.666 9.04591
112.961 9.06501
113.256 9.26966
113.552 9.84839
113.847 11.2729
113.995 12.6606
114.142 14.9514
114.290 18.9483
114.437 26.5051
114.511 32.9517
114.585 42.7411
114.659 58.4798
114.733 85.7733
114.807 138.566
114.844 185.012
114.880 258.333
114.917 382.472
114.954 612.707
114.973 806.126
114.991 1091.24
115.010 1527.02
115.028 2186.88
115.054 3557.14
115.080 4522.31
115.106 3678.23
115.132 2338.37
115.157 1498.06
115.181 1008.42
115.206 716.967
115.231 534.304
115.280 330.520
115.330 226.773
115.379 166.913
115.428 129.403
115.527 86.5498
115.626 63.7988
115.724 50.2149
115.823 41.3924
115.922 35.3033
116.119 27.5950
