W-182(n,tot) ENDF/B-VII.1
Energy(eV) XS(b)
1.00000E-05 1044.65
1.25000E-05 935.298
1.50000E-05 854.579
2.00000E-05 741.275
2.75000E-05 633.466
3.50000E-05 562.515
4.25000E-05 511.294
5.00000E-05 472.082
6.25000E-05 423.179
7.50000E-05 387.081
0.000100000 336.411
0.000125000 301.832
0.000150000 276.306
0.000200000 240.478
0.000275000 206.387
0.000350000 183.952
0.000425000 167.756
0.000500000 155.357
0.000625000 139.894
0.000750000 128.480
0.00100000 112.459
0.00125000 101.527
0.00150000 93.4571
0.00200000 82.1306
0.00275000 71.3549
0.00350000 64.2641
0.00425000 59.1460
0.00500000 55.2283
0.00625000 50.3433
0.00750000 46.7382
0.0100000 41.6793
0.0125000 38.2285
0.0150000 35.6823
0.0200000 32.1104
0.0253000 29.5521
0.0314750 27.4320
0.0376500 25.8591
0.0500000 23.6421
0.0625000 22.1087
0.0750000 20.9785
0.100000 19.3953
0.125000 18.3178
0.150000 17.5243
0.200000 16.4142
0.275000 15.3635
0.350000 14.6768
0.500000 13.8117
0.750000 13.0257
1.00000 12.5981
1.50000 12.2669
2.00000 12.4992
2.53130 13.7911
2.79695 15.3649
3.06260 18.4664
3.19543 21.1809
3.32825 25.4105
3.46108 32.4496
3.59390 45.3233
3.66031 56.1293
3.72673 72.5064
3.79314 98.9803
3.85955 145.762
3.89276 183.857
3.90936 209.056
3.91766 223.716
3.92596 240.020
3.93427 258.226
3.94257 278.634
3.95087 301.616
3.95917 327.612
3.96747 357.177
3.97577 390.977
3.98407 429.863
3.99238 474.886
4.00898 589.141
4.02558 750.031
4.04219 986.201
4.05879 1351.40
4.06709 1612.81
4.07539 1954.87
4.08369 2412.62
4.09199 3040.38
4.10030 3924.84
4.10860 5204.41
4.11690 7094.45
4.12520 9880.00
4.13760 15846.0
4.15000 19854.6
4.16240 15912.3
4.17480 9964.11
4.18769 6035.28
4.20059 3882.24
4.21348 2661.60
4.22638 1924.11
4.23927 1450.88
4.25216 1131.44
4.27795 742.716
4.30374 525.335
4.32953 392.024
4.38110 244.073
4.43268 168.209
4.48425 124.196
4.53583 96.3917
4.58740 77.6969
4.69055 54.8635
4.79370 41.9430
4.89685 33.9019
5.00000 28.5430
5.15625 23.2655
5.31250 19.9023
5.62500 15.9737
5.93750 13.8104
6.25000 12.4609
6.87500 10.8689
7.50000 9.93786
8.75000 8.81202
10.0000 8.06802
12.5000 6.99102
13.7500 6.59646
15.0000 6.37551
16.2500 6.59529
16.8750 7.10835
17.5000 8.23357
18.1250 10.6572
18.2813 11.6321
18.4375 12.8362
18.5156 13.5439
18.5938 14.3350
18.6328 14.7656
18.6524 14.9904
18.6719 15.2218
18.6914 15.4600
18.7109 15.7053
18.7305 15.9579
18.7500 16.2182
18.7695 16.4864
18.7891 16.7628
18.8086 17.0476
18.8281 17.3412
18.8672 17.9563
18.9063 18.6108
18.9844 20.0511
19.0625 21.6909
19.1406 23.5659
19.2188 25.7187
19.3750 31.0850
19.5313 38.3976
19.6875 48.6408
19.8438 63.4886
20.0000 85.9672
20.1259 113.476
20.2518 155.620
20.3776 224.406
20.5035 346.876
20.5664 446.958
20.6294 594.631
20.6923 824.641
20.7553 1209.49
20.8182 1920.96
20.8497 2523.58
20.8811 3441.52
20.9126 4924.72
20.9441 7502.38
20.9755 12370.6
20.9913 16400.9
21.0070 22089.1
21.0335 35604.2
21.0600 44819.9
21.0865 36110.5
21.1130 22738.2
21.1412 13695.1
21.1694 8784.65
21.1976 6019.31
21.2258 4355.06
21.2541 3289.44
21.2823 2570.68
21.3387 1695.73
21.3951 1205.48
21.4515 903.878
21.5644 567.356
21.6772 393.314
21.7900 291.428
21.9029 226.471
22.0157 182.397
22.2414 127.878
22.4671 96.4862
22.6928 76.6262
22.9184 63.1849
23.3698 46.5253
23.8212 36.8526
24.2725 30.6578
24.7239 26.4047
25.6266 21.0130
26.5293 17.7744
27.4320 15.6259
28.3348 14.0968
30.1402 12.0545
31.9456 10.7344
33.7511 9.79294
35.5565 9.07423
39.1674 8.01749
42.7783 7.24519
50.0000 6.11419
56.2500 5.35932
62.5000 4.70704
75.0000 3.52225
81.2500 2.92562
87.5000 2.28792
93.7500 1.59095
96.8750 1.23539
100.000 0.932694
101.767 0.844510
102.650 0.850732
103.092 0.873525
103.313 0.891134
103.533 0.913498
103.754 0.941162
103.975 0.974696
104.085 0.993875
104.196 1.01478
104.417 1.06218
104.638 1.11776
104.858 1.18246
105.079 1.25740
105.300 1.34382
105.742 1.55713
106.183 1.83646
106.625 2.20078
107.067 2.67527
107.508 3.29477
107.950 4.10740
108.392 5.18154
108.833 6.61600
109.275 8.55910
109.717 11.2366
110.158 15.0106
110.600 20.4788
111.042 28.6952
111.483 41.6253
111.925 63.2974
112.366 102.918
112.587 135.950
112.808 185.398
113.029 263.684
113.250 397.214
113.471 650.198
113.581 869.159
113.691 1209.57
113.802 1774.57
113.912 2793.88
113.967 3625.03
114.023 4827.17
114.078 6600.67
114.133 9211.92
114.217 14911.4
114.300 18904.4
114.384 15339.0
114.468 9697.55
114.552 6047.46
114.635 3984.00
114.719 2782.56
114.802 2043.38
114.886 1561.26
114.969 1232.13
115.136 825.615
115.303 594.193
115.470 450.265
115.805 287.590
116.139 202.253
116.473 151.713
116.807 119.166
117.141 96.8804
117.809 68.9860
118.477 52.6856
119.146 42.2321
119.814 35.0677
121.150 26.0399
122.487 20.6856
123.823 17.1889
125.160 14.7438
127.832 11.5669
130.505 9.59464
133.178 8.24324
135.851 7.24948
141.197 5.85471
146.543 4.88256
157.234 3.49690
167.926 2.41895
178.617 1.45018
189.309 0.589500
191.981 0.427670
193.318 0.365295
194.654 0.320692
195.323 0.306815
195.991 0.299744
196.659 0.300567
197.327 0.310568
197.995 0.331275
198.664 0.364508
198.998 0.386486
199.332 0.412446
200.000 0.477718
200.798 0.582912
201.597 0.724198
202.395 0.910248
203.193 1.15226
204.790 1.86809
206.386 3.06121
207.983 5.09570
209.579 8.74627
210.378 11.6935
211.176 16.0075
211.575 19.0223
211.974 23.1277
212.174 26.0294
212.373 30.4880
212.473 34.3460
212.523 37.3260
212.573 41.8017
212.623 49.4428
212.648 55.7352
212.673 65.2874
212.698 81.2260
212.722 110.877
212.735 136.516
212.747 175.689
212.760 239.249
212.772 341.979
212.786 508.675
212.800 603.450
212.814 468.616
212.821 371.920
212.828 291.076
212.837 210.092
212.847 156.957
212.866 98.8423
212.885 71.0835
212.904 56.5450
212.923 48.1963
212.942 43.1644
212.979 37.9075
213.017 35.6579
213.055 34.7401
213.131 34.6097
213.283 36.6363
213.434 39.6181
214.041 56.0019
214.647 82.1185
215.253 127.564
215.557 164.027
215.860 216.970
216.163 297.745
216.466 429.179
216.769 662.377
216.921 851.905
217.073 1129.13
217.224 1553.24
217.376 2236.33
217.527 3395.24
217.679 5409.91
217.840 8741.21
218.000 11132.2
218.161 9073.47
218.322 5724.06
218.436 4056.28
218.550 2944.53
218.664 2203.53
218.778 1698.74
219.006 1087.26
219.234 751.456
219.461 549.332
219.689 418.965
220.145 266.915
220.601 185.070
221.056 135.992
221.968 82.3790
222.879 55.0882
223.791 39.2009
224.702 29.0603
225.614 22.1387
227.436 13.4479
229.259 8.31058
231.082 5.00532
232.905 2.85021
233.817 2.12728
234.728 1.64510
235.184 1.50341
235.412 1.46010
235.639 1.43653
235.867 1.43389
236.095 1.45358
236.323 1.49722
236.551 1.56656
236.779 1.66371
237.007 1.79098
237.235 1.95100
237.462 2.14666
237.918 2.65916
238.374 3.36136
238.829 4.29580
239.285 5.51791
240.197 9.14094
241.108 15.1659
242.019 25.3567
242.931 43.3192
243.387 57.4323
243.842 77.2191
244.298 105.781
244.754 148.523
245.210 215.562
245.665 327.369
246.121 529.927
246.349 696.532
246.577 941.513
246.805 1317.50
247.032 1921.94
247.260 2940.22
247.488 4685.07
247.744 7744.37
248.000 9946.69
248.256 8171.63
248.512 5266.21
248.770 3334.81
249.028 2232.45
249.286 1585.60
249.544 1183.78
249.802 919.581
250.060 737.474
250.576 509.759
251.093 377.986
251.609 294.625
252.641 198.328
253.673 146.263
254.705 114.547
255.737 93.5748
256.769 78.8527
258.834 59.8013
260.898 48.1761
262.962 40.4237
265.027 34.9176
269.155 27.6553
273.284 23.0975
277.413 19.9723
281.541 17.6916
289.799 14.5644
298.056 12.4816
306.313 10.9105
308.378 10.5415
310.442 10.1401
311.474 9.90074
311.990 9.75940
312.506 9.59363
313.023 9.39201
313.281 9.27628
313.539 9.16038
313.668 9.11392
313.797 9.09434
313.926 9.14177
314.055 9.36331
314.119 9.62389
314.184 10.0944
314.248 10.9712
314.313 12.7136
314.377 16.5762
314.410 20.3685
314.442 26.9056
314.474 39.3583
314.490 50.0247
314.506 66.3584
314.514 77.9700
314.522 92.9700
314.531 112.683
314.539 138.695
314.547 174.546
314.555 223.554
314.563 292.976
314.571 388.284
314.578 504.213
314.585 637.857
314.600 820.690
314.607 785.279
314.615 680.181
314.629 442.327
314.645 281.253
314.660 190.693
314.675 137.869
314.690 105.170
314.705 83.7361
314.720 68.9836
314.750 50.5711
314.780 39.9025
314.810 33.1842
314.870 25.4216
314.930 21.2169
314.990 18.6583
315.050 16.9641
315.110 15.7732
315.230 14.2278
315.350 13.2824
315.470 12.6487
315.590 12.1967
315.830 11.5943
316.070 11.2098
316.550 10.7390
317.031 10.4511
317.511 10.2482
318.471 9.96262
320.392 9.58269
322.313 9.29723
329.997 8.42036
337.680 7.68335
345.364 6.97785
353.048 6.22312
356.890 5.78648
360.731 5.26595
364.573 4.58815
366.494 4.14583
368.415 3.59211
369.375 3.26003
370.336 2.88686
371.296 2.48358
372.257 2.11484
372.737 2.01297
373.217 2.07533
373.457 2.22857
373.577 2.35476
373.697 2.52526
373.818 2.75208
373.938 3.05016
374.058 3.44027
374.178 3.94888
374.298 4.61371
374.418 5.48529
374.538 6.63520
374.658 8.16468
374.778 10.2271
374.898 13.0468
375.018 16.9840
375.138 22.6087
375.258 30.9112
375.378 43.6410
375.498 64.2342
375.618 99.8970
375.678 128.100
375.738 168.112
375.798 227.159
375.858 318.481
375.919 468.570
375.979 732.937
376.039 1239.68
376.069 1664.06
376.099 2268.71
376.149 3743.30
376.200 4823.83
376.251 3977.67
376.302 2561.62
376.352 1620.61
376.403 1083.79
376.454 768.886
376.505 573.325
376.556 444.724
376.607 356.359
376.708 246.089
376.810 182.400
376.911 142.267
377.115 96.0579
377.318 71.2119
377.521 56.1542
377.725 46.2455
377.928 39.3247
378.334 30.4215
378.741 25.0340
379.148 21.4688
379.554 18.9550
380.367 15.6679
381.180 13.6267
381.994 12.2382
382.807 11.2315
384.433 9.86032
386.059 8.95695
387.686 8.30345
389.312 7.79765
392.565 7.03520
395.817 6.44929
402.322 5.47952
408.828 4.51574
412.080 3.95484
415.333 3.28218
416.959 2.88386
418.585 2.43260
420.212 1.92719
421.838 1.40371
422.651 1.18422
423.464 1.07687
423.668 1.08451
423.871 1.11372
424.074 1.17033
424.277 1.26186
424.481 1.39812
424.684 1.59201
424.887 1.86070
425.091 2.22710
425.294 2.72316
425.497 3.39259
425.700 4.29741
425.904 5.52715
426.107 7.21420
426.310 9.55990
426.514 12.8806
426.717 17.6905
426.920 24.8800
427.123 36.0568
427.327 54.3709
427.530 86.5870
427.632 112.372
427.733 149.374
427.835 204.760
427.937 291.772
428.038 437.798
428.140 703.101
428.191 920.254
428.241 1234.80
428.292 1699.14
428.343 2383.41
428.422 3928.04
428.500 5066.90
428.579 4182.28
428.658 2689.89
428.712 1958.52
428.766 1458.26
428.820 1117.33
428.874 880.126
428.982 585.946
429.090 419.742
429.198 317.411
429.306 250.046
429.522 169.555
429.738 124.844
429.954 97.2787
430.170 78.9705
430.386 66.1218
430.818 49.5597
431.250 39.5566
431.682 32.9672
432.114 28.3475
432.977 22.3656
433.841 18.7025
434.705 16.2463
435.569 14.4897
437.297 12.1437
439.025 10.6389
440.752 9.57836
442.480 8.77821
445.936 7.61388
449.391 6.75764
456.302 5.40746
463.213 4.11530
466.669 3.37705
470.124 2.51502
471.852 2.02723
473.580 1.51093
475.307 1.01372
476.171 0.816069
476.603 0.747185
477.035 0.710343
477.467 0.719406
477.683 0.747069
477.899 0.794278
478.115 0.865019
478.331 0.964085
478.547 1.09737
478.763 1.27205
478.979 1.49729
479.195 1.78429
479.627 2.60385
480.059 3.89785
480.491 5.94748
480.923 9.25066
481.354 14.7400
481.786 24.3177
482.002 31.8051
482.218 42.2647
482.434 57.3179
482.650 79.7701
482.866 114.833
483.082 172.930
483.298 277.306
483.406 362.380
483.514 486.324
483.622 674.469
483.730 972.530
483.838 1464.58
483.946 2287.76
484.073 3791.22
484.200 4908.38
484.328 4065.30
484.455 2627.43
484.577 1705.76
484.698 1163.20
484.819 836.997
484.941 630.984
485.062 493.805
485.184 398.431
485.427 278.040
485.670 207.748
485.912 163.016
486.398 111.057
486.884 82.8331
487.370 65.5929
487.856 54.1744
488.341 46.1531
489.313 35.7682
490.284 29.4346
491.256 25.2152
492.228 22.2230
494.171 18.2848
496.114 15.8204
498.057 14.1347
500.000 12.9069
504.877 10.9055
509.755 9.68281
514.632 8.83458
519.509 8.19226
529.264 7.22715
539.018 6.44872
548.773 5.67916
553.650 5.23734
558.527 4.70095
560.966 4.37221
563.404 3.98037
565.843 3.49754
568.282 2.88281
569.501 2.51059
570.720 2.09112
571.940 1.63977
573.159 1.23876
573.769 1.14371
574.073 1.16122
574.378 1.25276
574.531 1.33776
574.683 1.45731
574.835 1.61994
574.988 1.83651
575.140 2.12101
575.293 2.49167
575.445 2.97248
575.597 3.59544
575.750 4.40440
575.902 5.45768
576.055 6.83870
576.207 8.66567
576.360 11.1109
576.512 14.4325
576.664 19.0288
576.817 25.5375
576.969 35.0325
577.122 49.3828
577.274 72.1333
577.426 110.521
577.579 181.019
577.655 239.662
577.731 326.795
577.807 462.122
577.884 683.236
577.960 1063.45
578.036 1733.03
578.118 2881.06
578.200 3743.76
578.282 3111.77
578.364 2017.43
578.439 1334.47
578.514 922.974
578.589 670.780
578.664 509.420
578.814 324.847
578.964 228.148
579.114 171.270
579.263 134.892
579.563 92.4510
579.863 69.2884
580.163 55.1029
580.463 45.6915
580.762 39.0732
581.362 30.4951
581.961 25.2607
582.561 21.7741
583.160 19.3026
584.359 16.0546
585.558 14.0284
586.758 12.6479
587.957 11.6473
590.355 10.2905
592.753 9.40709
595.151 8.77934
597.549 8.30469
602.345 7.61934
607.141 7.12965
616.734 6.41672
626.326 5.83075
631.123 5.52916
635.919 5.18385
640.715 4.73652
643.113 4.43647
645.511 4.04147
646.710 3.78826
647.909 3.48022
649.108 3.09720
650.307 2.61489
650.907 2.33221
651.506 2.03067
652.106 1.74635
652.705 1.60613
653.005 1.70641
653.155 1.84790
653.305 2.08756
653.455 2.47159
653.605 3.07205
653.680 3.48754
653.755 4.00505
653.830 4.65200
653.905 5.46397
653.980 6.49016
654.054 7.79273
654.129 9.46512
654.204 11.6296
654.279 14.4748
654.354 18.2635
654.429 23.4101
654.504 30.5624
654.579 40.8004
654.654 55.9333
654.729 79.3698
654.804 117.677
654.879 185.330
654.916 239.519
654.954 317.019
654.991 432.356
655.029 609.483
655.066 892.160
655.104 1344.64
655.152 2238.13
655.200 2911.62
655.248 2423.29
655.297 1573.36
655.327 1184.19
655.357 906.935
655.416 570.844
655.476 390.872
655.536 285.710
655.596 219.345
655.656 174.995
655.776 121.054
655.896 90.5594
656.016 71.5443
656.255 49.7780
656.495 38.0599
656.735 30.9212
656.974 26.1859
657.214 22.8512
657.693 18.5111
658.172 15.8427
658.652 14.0513
659.131 12.7718
660.090 11.0731
661.048 9.99946
662.007 9.25967
662.965 8.71799
664.883 7.97404
666.800 7.48185
668.717 7.12706
670.634 6.85510
674.469 6.45402
678.303 6.15446
680.220 6.02092
682.138 5.88288
683.096 5.80289
683.575 5.75604
684.055 5.70103
684.534 5.63322
684.774 5.59305
685.013 5.55016
685.253 5.51611
685.373 5.51802
685.493 5.56424
685.553 5.62675
685.613 5.74520
685.672 5.97326
685.732 6.43679
685.792 7.48038
685.822 8.51264
685.852 10.2971
685.882 13.7002
685.897 16.6224
685.912 21.0557
685.927 28.2383
685.942 40.5664
685.950 50.1032
685.957 63.2275
685.965 81.4605
685.972 106.238
685.979 137.438
685.986 173.549
686.000 223.679
686.007 214.658
686.014 186.693
686.028 123.257
686.037 93.4207
686.046 72.5803
686.064 47.3748
686.082 34.0239
686.100 26.2753
686.118 21.4129
686.136 18.1659
686.171 14.2261
686.207 12.0038
686.243 10.6173
686.315 9.02928
686.386 8.17290
686.458 7.64937
686.529 7.30095
686.601 7.05471
686.744 6.73146
686.887 6.53045
687.173 6.29410
687.460 6.15845
687.746 6.06892
688.319 5.95398
688.891 5.87915
689.464 5.82338
690.609 5.73954
692.900 5.61793
695.190 5.52087
704.353 5.21097
722.677 4.68423
731.839 4.39933
736.420 4.23188
741.001 4.02944
745.582 3.75864
747.873 3.57460
750.163 3.33065
751.309 3.17319
752.454 2.98008
753.599 2.73663
754.745 2.42154
755.317 2.22944
755.890 2.01303
756.462 1.78230
757.035 1.58603
757.321 1.55099
757.608 1.63483
757.751 1.76330
757.894 1.99190
758.037 2.37859
758.180 3.02096
758.252 3.48855
758.324 4.09561
758.395 4.88931
758.467 5.93523
758.538 7.33429
758.610 9.23216
758.681 11.8560
758.753 15.5635
758.825 20.9743
758.896 29.1612
758.968 42.1588
759.039 64.1073
759.111 104.635
759.147 138.512
759.182 189.101
759.218 268.216
759.254 398.749
759.290 626.300
759.326 1032.72
759.363 1715.39
759.400 2231.37
759.437 1857.29
759.475 1203.93
759.518 714.717
759.561 458.190
759.605 316.708
759.648 232.796
759.691 179.193
759.735 143.119
759.821 98.9050
759.908 73.8053
759.995 58.1073
760.168 40.1328
760.342 30.4747
760.515 24.6037
760.688 20.7224
760.862 17.9963
761.209 14.4639
761.555 12.3040
761.902 10.8610
762.249 9.83511
762.942 8.47997
763.636 7.62894
764.330 7.04550
765.023 6.62009
766.410 6.03808
767.797 5.65399
769.185 5.37650
770.572 5.16209
773.346 4.83648
776.120 4.56797
777.508 4.42713
778.201 4.34631
778.895 4.25109
779.588 4.13032
779.935 4.05494
780.282 3.96698
780.455 3.91950
780.629 3.87372
780.802 3.84044
780.975 3.85243
781.062 3.90341
781.149 4.02294
781.236 4.28310
781.322 4.85947
781.366 5.39624
781.409 6.25485
781.452 7.70593
781.496 10.3258
781.539 15.5939
781.550 17.7207
781.561 20.3496
781.572 23.6715
781.582 27.9352
781.593 33.5653
781.604 41.0139
781.615 51.1805
781.626 65.4247
781.637 86.1939
781.647 116.813
781.658 163.407
781.669 234.445
781.677 304.885
781.685 387.525
781.700 501.230
781.708 480.674
781.716 416.310
781.731 271.285
781.741 203.561
781.751 155.764
781.771 98.4110
781.791 68.0834
781.810 50.5092
781.830 39.4971
781.850 32.1538
781.889 23.2765
781.929 18.2659
781.969 15.1476
782.048 11.5911
782.127 9.67861
782.206 8.51567
782.285 7.74463
782.364 7.20115
782.523 6.49267
782.681 6.05578
782.839 5.76120
782.997 5.54970
783.314 5.26579
783.630 5.08317
783.947 4.95461
784.263 4.85816
784.897 4.72041
785.530 4.62381
786.796 4.48982
788.062 4.39439
789.328 4.31819
791.860 4.19539
796.925 4.00272
801.989 3.83983
822.247 3.26220
842.504 2.64400
847.569 2.46009
852.633 2.24385
855.166 2.10953
856.432 2.02891
857.698 1.93264
858.964 1.81022
859.597 1.73367
860.230 1.64349
860.547 1.59364
860.863 1.54344
861.180 1.50121
861.496 1.49369
861.654 1.52658
861.813 1.61727
861.971 1.82973
862.129 2.32344
862.208 2.79720
862.287 3.57349
862.327 4.14960
862.367 4.91749
862.406 5.96790
862.446 7.43414
862.485 9.55677
862.505 10.9813
862.525 12.7465
862.545 14.9629
862.564 17.7888
862.584 21.4556
862.604 26.2842
862.624 32.8644
862.644 42.0538
862.663 55.3397
862.683 75.2489
862.703 106.966
862.723 160.444
862.742 256.688
862.752 332.796
862.762 435.296
862.781 715.394
862.800 920.829
862.819 759.764
862.838 487.821
862.852 348.617
862.865 256.122
862.879 194.224
862.893 151.798
862.920 100.026
862.947 71.2583
862.974 53.7009
863.001 42.2934
863.056 28.7804
863.110 21.3390
863.165 16.7940
863.219 13.7875
863.274 11.6911
863.383 9.00347
863.491 7.39112
863.600 6.33513
863.709 5.59901
863.927 4.65052
864.145 4.07364
864.363 3.68894
864.580 3.41517
865.016 3.05138
865.451 2.81965
866.322 2.53602
867.194 2.36224
868.065 2.23899
869.807 2.06285
873.291 1.81729
876.776 1.61720
883.744 1.24467
890.713 0.868068
897.682 0.490231
901.166 0.321886
902.908 0.254471
904.651 0.209102
905.522 0.199305
906.393 0.201963
907.264 0.221429
908.135 0.263942
909.006 0.338691
909.442 0.392263
909.877 0.459639
910.748 0.648814
911.619 0.942581
912.490 1.40439
