W-184(n,tot) ENDF/B-VII.1
Energy(eV) XS(b)
1.00000E-05 82.8700
1.25000E-05 74.8975
1.50000E-05 69.0124
2.00000E-05 60.7517
2.75000E-05 52.8916
3.50000E-05 47.7188
4.25000E-05 43.9844
5.00000E-05 41.1255
6.25000E-05 37.5601
7.50000E-05 34.9282
0.000100000 31.2339
0.000125000 28.7128
0.000150000 26.8518
0.000200000 24.2395
0.000275000 21.7539
0.000350000 20.1181
0.000425000 18.9372
0.000500000 18.0331
0.000625000 16.9056
0.000750000 16.0734
0.00100000 14.9051
0.00125000 14.1079
0.00150000 13.5194
0.00200000 12.6933
0.00275000 11.9073
0.00350000 11.3899
0.00425000 11.0165
0.00500000 10.7306
0.00625000 10.3740
0.00750000 10.1108
0.0100000 9.74129
0.0125000 9.48912
0.0150000 9.30295
0.0200000 9.04159
0.0253000 8.85420
0.0314750 8.69873
0.0376500 8.58324
0.0500000 8.42015
0.0625000 8.30707
0.0750000 8.22350
0.100000 8.10599
0.125000 8.02559
0.150000 7.96605
0.200000 7.88207
0.275000 7.80140
0.350000 7.74760
0.500000 7.67751
0.750000 7.60860
1.00000 7.56471
1.50000 7.50696
2.00000 7.46691
2.75000 7.42113
3.50000 7.38383
5.00000 7.32108
7.50000 7.23156
10.0000 7.14985
15.0000 6.99549
20.0000 6.84592
27.5000 6.62386
35.0000 6.40072
50.0000 5.94104
75.0000 5.08867
87.5000 4.57895
90.6250 4.43236
93.7500 4.26985
95.3125 4.17876
96.8750 4.07731
97.6563 4.02189
98.4375 3.96471
99.2188 3.91470
99.6094 3.90383
100.000 3.92486
100.209 3.96681
100.418 4.05499
100.626 4.23684
100.835 4.63005
100.939 4.99514
101.044 5.58500
101.148 6.60064
101.252 8.50728
101.305 10.1319
101.357 12.6089
101.409 16.6160
101.461 23.6263
101.513 37.4523
101.526 43.0108
101.539 49.9035
101.552 58.7241
101.559 64.0094
101.565 70.0470
101.572 77.0968
101.579 85.1286
101.585 94.4700
101.592 105.410
101.598 118.536
101.605 133.936
101.618 174.824
101.631 236.780
101.644 333.393
101.650 402.429
101.657 491.417
101.663 606.370
101.670 753.508
101.685 1220.07
101.700 1541.27
101.708 1459.40
101.715 1247.64
101.730 791.805
101.747 476.870
101.763 306.932
101.780 211.666
101.796 154.476
101.812 117.898
101.829 93.2297
101.862 63.1764
101.894 46.2983
101.927 35.8834
101.993 24.2165
102.058 18.1241
102.124 14.5296
102.189 12.2197
102.255 10.6419
102.386 8.66480
102.517 7.50919
102.648 6.76649
102.779 6.25593
103.042 5.60873
103.304 5.22090
103.566 4.96429
103.829 4.78209
104.353 4.53876
104.878 4.38075
105.927 4.17808
106.976 4.04284
108.025 3.93765
110.123 3.76740
114.319 3.48174
118.516 3.21122
126.908 2.64757
135.301 2.02156
143.694 1.33018
152.086 0.652126
154.184 0.518505
156.282 0.422242
157.332 0.394914
157.856 0.388064
158.381 0.386527
158.905 0.390975
159.430 0.402163
159.954 0.420949
160.479 0.448304
161.003 0.485344
161.528 0.533315
162.052 0.593678
162.577 0.668062
163.626 0.866874
164.675 1.14898
165.724 1.54132
166.773 2.08541
167.822 2.88277
168.347 3.60226
168.478 3.97078
168.609 4.71267
168.675 5.52369
168.708 6.22456
168.740 7.34099
168.773 9.32228
168.789 10.9508
168.806 13.3775
168.822 17.2063
168.839 23.6809
168.855 35.5044
168.871 57.9441
168.886 89.5219
168.900 109.473
168.914 87.1036
168.929 55.2244
168.943 34.9542
168.957 23.8037
168.972 17.3927
168.986 13.5398
169.015 9.39842
169.044 7.39753
169.072 6.30490
169.101 5.65617
169.158 4.98078
169.273 4.53996
169.388 4.47044
169.847 4.88181
170.765 6.32351
172.602 10.8559
174.439 19.1490
175.357 25.8717
176.275 35.5439
177.194 49.9336
178.112 72.2769
179.030 109.001
179.949 174.239
180.408 227.030
180.867 303.836
181.326 420.783
181.785 609.494
182.245 938.434
182.704 1573.66
182.933 2127.15
183.163 2978.72
183.393 4334.76
183.622 6510.88
183.911 10642.8
184.200 13581.3
184.490 11089.8
184.779 7076.49
185.017 4814.95
185.255 3392.71
185.493 2490.73
185.730 1898.33
186.206 1205.77
186.682 836.753
187.157 618.183
187.633 478.263
188.584 315.551
189.536 227.652
190.487 174.474
191.438 139.650
192.390 115.474
194.292 84.7189
196.195 66.4010
198.097 54.4693
200.000 46.1830
202.623 38.2711
205.246 32.8031
210.493 25.8144
215.739 21.5786
220.985 18.7506
226.232 16.7268
231.478 15.1947
236.724 13.9522
238.036 13.6566
239.347 13.3421
240.003 13.1641
240.331 13.0656
240.659 12.9596
240.987 12.8539
241.151 12.8146
241.315 12.8147
241.397 12.8524
241.479 12.9466
241.561 13.1551
241.643 13.6176
241.725 14.7350
241.766 15.8911
241.807 17.9704
241.848 22.1340
241.868 25.8800
241.889 31.8741
241.909 42.1433
241.930 61.3682
241.940 77.6352
241.950 101.549
241.960 137.831
241.971 192.940
241.978 247.656
241.985 311.641
242.000 398.724
242.015 332.027
242.030 218.913
242.046 136.480
242.063 92.7382
242.080 68.2137
242.097 53.5941
242.113 44.1619
242.130 37.8094
242.164 29.9724
242.197 25.5048
242.231 22.7027
242.298 19.4848
242.365 17.7494
242.432 16.6904
242.499 15.9871
242.566 15.4902
242.700 14.8400
242.834 14.4350
242.968 14.1583
243.102 13.9560
243.370 13.6761
243.638 13.4864
244.174 13.2314
244.710 13.0537
245.246 12.9128
246.318 12.6848
248.462 12.3223
250.606 12.0151
259.181 11.0199
276.333 9.52778
284.909 8.85713
289.197 8.49735
293.485 8.08550
297.773 7.55860
299.917 7.20905
302.061 6.75088
303.133 6.45689
304.205 6.09739
305.277 5.64521
306.349 5.06141
306.885 4.70641
307.421 4.30777
307.957 3.88589
308.493 3.53658
308.761 3.48676
309.029 3.66917
309.297 4.38345
309.364 4.71641
309.431 5.14513
309.498 5.69621
309.565 6.40514
309.632 7.31993
309.665 7.87425
309.699 8.50662
309.766 10.0577
309.833 12.1053
309.900 14.8426
309.967 18.5603
310.034 23.7093
310.101 31.0161
310.168 41.7060
310.235 57.9622
310.302 83.9540
310.369 128.380
310.402 163.003
310.436 211.634
310.469 282.369
310.503 389.721
310.536 561.317
310.570 853.129
310.603 1383.67
310.637 2382.29
310.668 3936.72
310.700 5069.27
310.732 4177.40
310.764 2694.93
310.791 1816.21
310.818 1274.20
310.846 933.929
310.873 713.277
310.928 456.842
310.982 320.870
311.037 240.412
311.092 188.812
311.201 128.589
311.310 95.7545
311.420 75.7286
311.529 62.4821
311.638 53.2120
311.857 41.2687
312.076 34.0410
312.295 29.2652
312.513 25.9055
312.951 21.5340
313.388 18.8431
313.826 17.0322
314.263 15.7351
315.138 14.0055
316.013 12.9060
316.888 12.1439
317.762 11.5829
319.512 10.8064
321.262 10.2876
324.761 9.61973
328.261 9.19006
331.760 8.87686
338.759 8.42434
352.756 7.81534
366.754 7.36192
380.751 6.96708
394.749 6.57091
401.748 6.33903
405.247 6.19895
408.747 6.02622
412.246 5.79015
413.996 5.62722
415.745 5.40930
416.620 5.26804
417.495 5.09473
418.370 4.87692
419.245 4.59818
419.682 4.43145
420.120 4.24885
420.557 4.06619
420.994 3.94490
421.213 3.96603
421.432 4.12843
421.651 4.60288
421.869 5.82431
421.979 7.04846
422.033 7.93902
422.088 9.10180
422.115 9.81952
422.143 10.6459
422.170 11.6084
422.197 12.7265
422.225 14.0416
422.252 15.5860
422.279 17.4173
422.307 19.6040
422.334 22.2465
422.361 25.4444
422.389 29.3819
422.416 34.2491
422.443 40.3881
422.471 48.1882
422.498 58.3003
422.525 71.6701
422.553 89.8371
422.580 115.022
422.607 151.369
422.635 205.528
422.662 290.766
422.689 431.449
422.717 677.879
422.744 1122.14
422.772 1852.82
422.800 2391.89
422.828 1976.80
422.856 1276.19
422.875 935.423
422.894 701.726
422.913 540.465
422.931 428.225
422.969 287.729
423.007 208.023
423.044 158.581
423.082 125.938
423.157 86.8415
423.233 65.0358
423.308 51.5796
423.383 42.6246
423.459 36.3283
423.609 28.1998
423.760 23.2840
423.911 20.0444
424.061 17.7747
424.363 14.8366
424.664 13.0428
424.966 11.8448
425.267 10.9933
425.870 9.86910
426.472 9.16353
427.075 8.68034
427.678 8.32862
428.883 7.84929
430.088 7.53570
431.294 7.31228
432.499 7.14325
434.910 6.89987
437.321 6.72801
442.142 6.48834
446.964 6.31659
451.785 6.17841
461.428 5.95247
480.714 5.58584
500.000 5.26144
545.209 4.52545
567.813 4.12996
590.418 3.68387
613.022 3.14071
624.324 2.80383
635.626 2.39149
646.929 1.85449
652.580 1.51326
658.231 1.10657
661.056 0.879290
663.882 0.647098
666.707 0.444579
668.120 0.383094
668.827 0.373055
669.533 0.384215
670.239 0.424951
670.946 0.507193
671.299 0.569005
671.652 0.648237
672.005 0.748369
672.359 0.873675
673.065 1.22229
673.771 1.75453
674.478 2.56789
675.184 3.82592
675.890 5.81824
676.597 9.08883
677.303 14.7476
678.010 25.3142
678.363 34.1832
678.716 47.4526
679.069 68.3008
679.422 103.230
679.776 167.091
679.952 220.163
680.129 299.116
680.305 422.160
680.482 624.557
680.659 976.580
680.835 1606.45
681.018 2652.40
681.200 3446.04
681.383 2864.41
681.565 1845.24
681.738 1193.55
681.910 809.485
682.083 579.175
682.256 433.977
682.429 337.652
682.601 270.825
682.947 186.880
683.292 138.127
683.637 107.269
684.328 71.6803
685.019 52.5206
685.710 40.9132
686.400 33.2805
687.091 27.9520
688.472 21.1089
689.854 16.9728
691.235 14.2353
692.617 12.3016
695.380 9.75581
698.143 8.13239
699.524 7.49903
700.905 6.91602
701.596 6.61821
701.942 6.45955
702.287 6.29000
702.632 6.11082
702.805 6.02664
702.978 5.97082
703.150 6.02503
703.237 6.17913
703.323 6.56785
703.409 7.57508
703.453 8.65089
703.496 10.6190
703.539 14.6122
703.561 18.2306
703.582 24.0078
703.604 33.9601
703.614 41.7224
703.625 52.5883
703.631 59.6717
703.636 68.2285
703.641 78.6387
703.647 91.3871
703.652 107.083
703.658 126.467
703.663 150.382
703.668 179.052
703.676 232.910
703.684 295.446
703.700 382.772
703.708 367.636
703.716 319.609
703.732 210.147
703.742 159.656
703.751 123.996
703.771 80.5179
703.791 57.1246
703.810 43.4018
703.830 34.7251
703.849 28.8984
703.889 21.7864
703.928 17.7417
703.967 15.2135
704.046 12.3006
704.124 10.7158
704.202 9.74068
704.281 9.08532
704.359 8.61778
704.516 7.99498
704.673 7.59760
704.987 7.11053
705.301 6.81162
705.615 6.59976
706.242 6.29965
707.497 5.90017
708.753 5.60600
713.773 4.77792
723.815 3.70110
733.856 2.89704
743.898 2.17703
753.939 1.46189
763.981 0.737612
769.001 0.413908
771.512 0.290727
772.767 0.247751
774.022 0.223118
774.650 0.219646
775.277 0.223424
775.591 0.228419
775.905 0.235723
776.533 0.258087
777.160 0.292424
777.788 0.341138
778.415 0.407331
779.043 0.495149
779.670 0.610481
780.298 0.762183
780.926 0.965110
781.553 1.24801
782.181 1.67972
782.495 2.00685
782.808 2.49032
783.122 3.31804
783.279 4.02094
783.436 5.15982
783.593 7.29424
783.671 9.20755
783.750 12.3795
783.828 18.3533
783.868 23.6007
783.907 32.0156
783.946 46.8314
783.966 58.8862
783.985 76.6388
784.005 104.181
784.024 149.655
784.044 229.953
784.064 377.281
784.082 593.569
784.100 734.720
784.118 582.103
784.137 358.214
784.151 242.169
784.164 169.051
784.178 122.366
784.192 91.6353
784.206 70.5536
784.220 55.8119
784.234 45.1011
784.248 37.1150
784.276 26.2604
784.304 19.5217
784.331 15.0740
784.359 12.0058
784.387 9.80663
784.415 8.19631
784.443 6.98407
784.471 6.05353
784.526 4.75116
784.582 3.92036
784.693 2.99319
784.805 2.55432
785.027 2.25731
785.250 2.26186
785.472 2.38234
785.918 2.76964
786.808 3.83431
787.699 5.24959
788.590 7.13304
789.480 9.68611
790.371 13.2212
791.261 18.2381
792.152 25.5745
793.043 36.7122
793.933 54.4553
794.824 84.5810
795.714 140.381
796.160 187.186
796.605 257.288
797.050 367.321
797.496 549.726
797.941 869.740
798.386 1448.08
798.843 2408.53
799.300 3144.85
799.757 2627.50
800.214 1704.65
800.519 1254.79
800.825 942.728
801.130 727.621
801.436 576.653
802.046 387.564
802.657 279.653
803.268 212.713
803.878 168.399
805.100 115.083
806.321 85.2566
807.543 66.7537
809.986 45.6749
812.428 34.3638
814.871 27.4707
817.314 22.8915
819.757 19.6545
824.643 15.4119
829.528 12.7661
834.414 10.9558
839.300 9.63134
849.071 7.79297
858.843 6.53343
878.386 4.76404
897.928 3.34472
907.700 2.63586
917.471 1.87491
927.243 1.04317
932.129 0.631261
934.571 0.453788
937.014 0.327511
938.236 0.298833
938.846 0.297357
939.457 0.306759
939.763 0.316208
940.068 0.329228
940.679 0.367430
941.289 0.424631
941.900 0.504857
942.511 0.613119
943.121 0.755612
943.732 0.940191
944.343 1.17680
945.564 1.86074
946.786 2.96255
948.007 4.75604
949.229 7.75380
950.450 12.9951
951.061 17.0924
951.671 22.8141
952.282 31.0338
952.893 43.2611
953.504 62.2866
954.114 93.6649
954.725 149.587
955.030 194.832
955.336 260.331
955.641 358.817
955.946 512.983
956.252 763.907
956.557 1177.63
956.929 1960.46
957.300 2568.11
957.672 2151.81
958.044 1396.35
958.360 948.751
958.675 668.679
958.991 492.222
959.306 376.772
959.937 242.173
960.568 170.418
961.199 127.765
961.830 100.312
963.092 68.0919
964.355 50.4304
965.617 39.5802
966.879 32.3624
968.141 27.2712
970.665 20.6403
973.189 16.5517
975.713 13.7858
978.237 11.7809
983.286 9.00390
988.334 7.00538
990.858 6.07340
992.120 5.57202
993.382 5.00673
994.644 4.31794
995.275 3.89674
995.906 3.40588
996.222 3.13626
996.538 2.86543
996.853 2.63694
997.169 2.58807
997.326 2.75002
997.484 3.20045
997.563 3.61843
997.642 4.24690
997.721 5.19276
997.800 6.62964
997.839 7.62210
997.878 8.86366
997.918 10.4380
997.957 12.4445
997.997 15.0456
998.036 18.4488
998.076 22.9871
998.115 29.1624
998.155 37.7972
998.194 50.1689
998.233 68.6422
998.273 97.3405
998.312 144.725
998.352 228.073
998.371 294.081
998.391 386.755
998.411 518.503
998.431 704.972
998.465 1184.05
998.500 1553.87
998.535 1304.82
998.570 855.059
998.592 640.824
998.614 489.498
998.659 308.150
998.704 212.011
998.748 156.113
998.793 120.952
998.838 97.4101
998.927 68.7288
999.017 52.4568
999.106 42.2465
999.285 30.4640
999.464 24.0469
999.642 20.0891
999.821 17.4342
1000.00 15.5419
1000.33 13.1909
1000.66 11.6677
1001.32 9.81125
1001.98 8.70783
1002.64 7.96595
1003.96 6.99942
1005.28 6.36770
1007.91 5.52293
1010.55 4.92750
1015.83 4.03612
1021.10 3.32273
1031.65 2.11140
1042.20 1.05053
1047.48 0.599204
1050.11 0.415567
1052.75 0.279965
1054.07 0.237820
1055.39 0.218614
1056.71 0.228246
1057.37 0.246152
1058.03 0.274261
1058.69 0.313946
1059.34 0.366581
1060.00 0.434044
1060.66 0.518102
1061.98 0.745909
1063.30 1.07258
1064.62 1.52960
1065.94 2.15944
1067.26 3.02178
1068.58 4.20077
1069.89 5.82224
1071.21 8.07105
1072.53 11.2331
1073.85 15.7603
1075.17 22.4167
1076.49 32.5239
1077.81 48.5437
1079.13 75.3925
1080.44 124.045
1081.10 163.877
1081.76 221.927
1082.42 310.030
1083.08 448.951
1083.74 676.953
1084.40 1056.43
1085.20 1779.12
1086.00 2345.35
1086.80 1974.04
1087.60 1291.25
1088.29 878.646
1088.98 621.111
1089.67 459.101
1090.36 353.231
1091.74 229.453
1093.13 163.145
1094.51 123.485
1095.89 97.8132
1098.65 67.3858
1101.41 50.4390
1104.18 39.8378
1106.94 32.6167
1109.70 27.3629
1115.23 19.9989
1120.75 14.3924
1123.51 11.5077
1124.89 9.85353
1126.28 7.92579
1127.66 5.59739
1128.35 4.28984
1129.04 3.05066
1129.38 2.62001
1129.56 2.52608
1129.73 2.56995
1129.90 2.82362
1129.99 3.06036
1130.07 3.39473
1130.16 3.85709
1130.25 4.46828
1130.33 5.27322
1130.42 6.32471
1130.51 7.71071
1130.59 9.49397
1130.68 11.8467
1130.77 14.8927
1130.85 18.9570
1130.94 24.3052
1131.02 31.4996
1131.11 41.3239
1131.20 55.1771
1131.28 74.6993
1131.37 103.248
1131.46 146.390
1131.54 215.168
1131.63 327.116
1131.71 518.944
1131.80 852.747
1131.90 1477.43
1132.00 1968.52
1132.10 1676.47
1132.20 1127.33
1132.26 866.806
1132.33 678.552
1132.45 447.032
1132.58 319.471
1132.70 243.003
1132.83 193.687
1132.95 159.959
1133.20 117.808
1133.45 93.0775
1133.70 77.2323
1134.20 58.3705
1134.70 47.6910
1135.20 40.9098
1135.70 36.2253
1136.20 32.8104
1137.21 28.1434
1138.21 25.0889
1140.21 21.2753
1142.21 18.9244
1144.21 17.2833
1148.21 15.0555
1152.22 13.5389
1156.22 12.3929
1164.23 10.6948
1180.24 8.39361
1196.26 6.67165
1212.27 5.07707
1220.28 4.22098
1228.28 3.25269
1236.29 2.09665
1240.29 1.43341
1244.30 0.756923
1246.30 0.469961
1247.30 0.366303
1247.80 0.331205
1248.30 0.311261
1248.80 0.310291
1249.05 0.318415
1249.30 0.333216
1249.80 0.386396
1250.30 0.477633
1250.80 0.617678
1251.30 0.819484
1251.80 1.10105
1252.30 1.48608
1252.81 2.00774
1253.31 2.70787
1253.81 3.65059
1254.31 4.91892
1254.81 6.64408
1255.31 9.00614
1255.81 12.2933
1256.31 16.9561
1256.81 23.7512
1257.31 33.9295
1257.81 49.8710
1258.31 76.0820
1258.81 122.469
1259.06 159.427
1259.31 212.133
1259.56 289.662
1259.81 407.485
1260.06 591.673
1260.31 881.386
1260.66 1496.26
1261.00 1985.46
1261.35 1676.97
1261.69 1100.58
1261.98 761.890
1262.26 547.007
1262.55 409.386
1262.84 318.076
1263.41 209.759
1263.98 151.048
1264.55 115.572
1265.13 92.4879
1266.27 64.9554
1267.42 49.5852
1268.56 39.9961
1269.71 33.5319
1270.85 28.9192
1273.14 22.8289
1275.43 19.0174
1277.72 16.4154
1280.01 14.5249
1284.59 11.9430
1289.17 10.2356
1298.33 8.02475
1307.49 6.54184
1316.65 5.36698
1325.80 4.29545
1328.09 4.01342
1330.38 3.69639
1331.53 3.50493
1332.10 3.39163
1332.67 3.25876
1333.25 3.09539
1333.53 2.99939
1333.82 2.89731
1333.96 2.85011
1334.11 2.81642
1334.25 2.82010
1334.39 2.92606
1334.46 3.07047
1334.53 3.33980
1334.61 3.86378
1334.68 4.90689
1334.75 7.26823
1334.79 9.58774
1334.80 11.2999
1334.82 13.4425
1334.84 16.5181
1334.86 20.8369
1334.87 27.1046
1334.88 31.3263
1334.89 36.5688
1334.90 43.1602
1334.91 51.5599
1334.92 62.4196
1334.93 76.6723
1334.94 95.6556
1334.95 121.259
1334.96 156.009
1334.96 199.842
1334.98 334.334
1335.00 433.917
1335.01 418.406
1335.02 365.174
1335.04 237.679
1335.05 163.128
1335.07 117.538
1335.08 86.7797
1335.10 67.8902
1335.13 44.9255
1335.16 32.6429
1335.19 25.3216
1335.22 20.5951
1335.28 15.0277
1335.35 11.9613
1335.41 10.0697
1335.47 8.80728
1335.53 7.92676
1335.66 6.75655
1335.78 6.03574
1335.90 5.55078
1336.03 5.20560
1336.27 4.73949
1336.52 4.44105
1337.02 4.07155
1337.51 3.84171
1338.01 3.67704
1338.99 3.43963
1340.97 3.10760
1342.95 2.84247
1350.87 1.93354
1358.78 1.09301
1366.69 0.383436
1368.67 0.262070
1369.66 0.216865
1370.65 0.184880
1371.64 0.168761
1372.63 0.171840
1373.62 0.198123
1374.61 0.252570
1375.60 0.341423
1376.59 0.472143
1377.58 0.654368
1378.57 0.900179
1379.56 1.22534
1380.54 1.64897
1382.52 2.90329
1384.50 4.98665
1386.48 8.48789
1388.46 14.5754
1390.44 25.7570
1391.43 34.9109
1392.42 48.1959
1393.40 68.2050
1394.39 99.7506
1395.38 152.517
1396.37 247.248
1396.87 323.707
1397.36 432.542
1397.86 590.536
1398.35 818.492
1399.18 1380.57
1400.00 1830.30
1400.83 1549.47
1401.65 1013.74
1402.34 697.534
1403.02 496.333
1403.71 367.812
1404.39 282.850
1405.77 182.240
1407.14 127.606
1408.51 94.4255
1409.88 72.5154
1412.62 45.3040
1415.37 28.1202
1416.74 21.0546
1418.11 14.3355
1419.48 7.77483
1420.17 4.81110
1420.51 3.61324
1420.85 2.82484
1421.02 2.67869
1421.19 2.78117
1421.28 2.95368
1421.37 3.22617
1421.45 3.61644
1421.54 4.13877
1421.62 4.83089
1421.71 5.71855
1421.88 8.22189
1422.05 12.0927
1422.22 17.9170
1422.40 26.7667
1422.57 40.1616
1422.74 61.0231
1422.91 93.9403
1423.08 148.256
1423.25 240.338
1423.42 403.147
1423.59 693.862
1423.80 1262.45
1424.00 1712.93
1424.20 1476.96
1424.41 1022.98
1424.58 740.635
1424.75 556.170
1424.93 434.872
1425.10 352.658
1425.45 251.314
1425.80 193.613
1426.14 157.302
1426.49 132.702
1427.18 101.907
1427.88 83.6050
1428.57 71.5327
1429.96 56.5777
1431.35 47.6063
1432.74 41.5668
1435.51 33.8061
1438.29 28.9107
1441.07 25.4652
1446.62 20.8021
1452.17 17.6768
1457.72 15.3453
1468.83 11.8440
1479.93 8.90228
