Au-197(n,tot) ENDF/B-VII.1
Energy(eV) XS(b)
1.00000E-05 4922.36
1.25000E-05 4403.54
1.50000E-05 4020.56
2.00000E-05 3482.97
2.75000E-05 2971.46
3.50000E-05 2634.83
4.25000E-05 2391.81
5.00000E-05 2205.76
6.25000E-05 1973.74
7.50000E-05 1802.47
0.000100000 1562.06
0.000125000 1398.00
0.000150000 1276.90
0.000200000 1106.91
0.000275000 945.169
0.000350000 838.727
0.000425000 761.888
0.000500000 703.064
0.000625000 629.707
0.000750000 575.559
0.00100000 499.558
0.00125000 447.697
0.00150000 409.419
0.00200000 355.695
0.00275000 304.590
0.00350000 270.966
0.00425000 246.699
0.00500000 228.127
0.00625000 204.973
0.00750000 187.890
0.0100000 163.927
0.0125000 147.590
0.0150000 135.542
0.0200000 118.654
0.0253000 106.572
0.0314750 96.5729
0.0376500 89.1662
0.0500000 78.7497
0.0625000 71.5695
0.0750000 66.2963
0.100000 58.9500
0.125000 53.9910
0.150000 50.3718
0.200000 45.3795
0.275000 40.7818
0.350000 37.8934
0.500000 34.5046
0.750000 31.9543
1.00000 31.1368
1.50000 32.1992
2.00000 36.2787
2.70510 50.2210
3.05765 64.8458
3.41020 91.7138
3.58648 114.245
3.76275 148.317
3.93903 203.212
4.02716 244.134
4.11530 299.780
4.20344 378.086
4.29158 493.108
4.37971 671.657
4.46785 969.990
4.51192 1200.07
4.55599 1522.35
4.60006 1992.22
4.64413 2712.27
4.68819 3887.33
4.73226 5962.76
4.75430 7623.51
4.77633 9986.41
4.79837 13405.8
4.82040 18333.0
4.85520 29360.3
4.89000 36725.1
4.92480 29405.6
4.95960 18406.6
5.00000 10548.4
5.03906 6620.48
5.07813 4465.22
5.11719 3191.39
5.15625 2386.59
5.23438 1474.36
5.31250 1000.31
5.39063 724.107
5.46875 549.550
5.62500 349.912
5.78125 244.473
5.93750 182.085
6.09375 142.119
6.25000 114.969
6.56250 81.4610
6.87500 62.3073
7.18750 50.3088
7.50000 42.2778
8.12500 32.4865
8.75000 26.9304
9.37500 23.4471
10.0000 21.1014
11.2500 18.1967
12.5000 16.4974
13.7500 15.3909
15.0000 14.6125
17.5000 13.5793
20.0000 12.9065
23.2982 12.2824
26.5965 11.8111
33.1930 11.0659
39.7894 10.3835
43.0877 10.0134
44.7368 9.82301
45.1491 9.78677
45.5614 9.78442
45.7675 9.82951
45.9736 9.99577
46.0767 10.2229
46.1282 10.4313
46.1798 10.7695
46.2313 11.3607
46.2828 12.5039
46.3086 13.5005
46.3344 15.0344
46.3601 17.4810
46.3859 21.4140
46.4180 28.7647
46.4500 33.8799
46.4821 29.2697
46.5141 22.0384
46.5413 17.8848
46.5686 15.3261
46.5958 13.7310
46.6230 12.6969
46.6775 11.5034
46.7320 10.8743
46.8409 10.2650
46.9498 9.98483
47.1677 9.72814
47.3856 9.60402
48.2571 9.36630
50.0000 9.04216
51.9657 8.67513
52.9486 8.49699
53.9314 8.35393
54.9143 8.32539
55.8971 8.66862
56.3885 9.25013
56.8800 10.7007
57.1257 12.3742
57.3714 16.2684
57.4942 20.8182
57.5557 24.8501
57.6171 31.3907
57.6785 43.1056
57.7400 67.2093
57.7707 89.8963
57.7860 106.310
57.8014 127.874
57.8167 156.736
57.8321 195.905
57.8475 249.599
57.8628 322.574
57.8774 412.124
57.8919 515.554
57.9210 650.624
57.9356 617.739
57.9501 531.129
57.9792 342.459
58.0110 211.688
58.0427 141.538
58.0744 102.458
58.1062 79.2026
58.1697 54.7457
58.2332 43.2913
58.3601 34.3296
58.4871 32.5005
58.7411 37.6939
58.9950 53.3460
59.1220 67.5115
59.2490 89.3512
59.3759 124.691
59.5029 186.149
59.5664 234.994
59.6299 305.019
59.6934 409.823
59.7569 575.463
59.8203 856.527
59.8838 1379.60
59.9156 1819.27
59.9473 2473.07
59.9791 3471.19
60.0108 4998.16
60.0549 8118.51
60.0990 10304.1
60.1431 8372.73
60.1872 5317.59
60.2224 3643.73
60.2576 2579.62
60.2928 1899.22
60.3280 1449.52
60.3983 921.027
60.4687 638.443
60.5391 470.979
60.6095 363.864
60.7502 239.647
60.8909 172.876
61.0317 132.713
61.1724 106.565
61.3132 88.5189
61.5947 65.7460
61.8762 52.3282
62.1577 43.6754
62.4391 37.7217
63.0021 30.1917
63.5651 25.7117
64.1281 22.7828
64.6911 20.7355
65.8171 18.0826
66.9430 16.4464
68.0690 15.3352
69.1950 14.5262
71.4469 13.4060
72.5729 12.9928
73.6988 12.6470
74.8248 12.3847
75.3878 12.3197
75.9508 12.3728
76.2323 12.4967
76.5138 12.7561
76.7953 13.2799
77.0767 14.3796
77.2175 15.3748
77.3582 16.9502
77.4990 19.5913
77.6397 24.3921
77.7805 34.2336
77.8508 43.3974
77.9212 58.6787
77.9916 86.6090
78.0268 109.903
78.0620 144.746
78.0972 199.587
78.1323 291.145
78.1675 454.057
78.1851 581.562
78.2027 753.875
78.2369 1219.89
78.2710 1548.20
78.3052 1262.59
78.3393 807.306
78.3605 603.972
78.3816 460.419
78.4239 287.797
78.4662 196.529
78.5085 143.825
78.5508 110.963
78.5931 89.1923
78.6778 63.0850
78.7624 48.6115
78.8470 39.7370
79.0162 29.8080
79.1854 24.6177
79.3547 21.5335
79.5239 19.5324
79.6931 18.1489
80.0316 16.3871
80.3700 15.3280
80.7085 14.6268
81.0469 14.1293
81.7238 13.4677
82.4007 13.0421
83.7545 12.5087
85.1083 12.1693
86.4621 11.9209
89.1697 11.5562
91.8772 11.2788
94.5848 11.0431
97.2924 10.8252
100.000 10.6049
101.735 10.4515
102.603 10.3696
103.471 10.2884
103.904 10.2533
104.338 10.2307
104.772 10.2394
105.206 10.3301
105.423 10.4471
105.640 10.6662
105.857 11.0866
106.073 11.9479
106.182 12.7203
106.290 13.9359
106.399 15.9660
106.507 19.6310
106.616 27.0811
106.670 33.9412
106.724 45.2455
106.778 65.5811
106.833 106.615
106.860 144.071
106.887 204.484
106.900 248.906
106.914 306.888
106.928 384.028
106.941 484.304
106.956 624.661
106.971 786.631
107.000 1002.64
107.015 953.279
107.030 819.645
107.059 525.497
107.088 334.322
107.118 225.431
107.147 161.745
107.176 122.418
107.205 96.5716
107.235 78.8796
107.293 56.8490
107.352 44.2116
107.410 36.2867
107.527 27.2418
107.644 22.4322
107.761 19.5472
107.878 17.6666
107.995 16.3638
108.229 14.7064
108.463 13.7168
108.697 13.0686
108.931 12.6151
109.399 12.0264
109.867 11.6624
110.335 11.4143
110.803 11.2331
111.739 10.9816
112.675 10.8099
114.548 10.5754
116.420 10.4068
118.292 10.2678
119.228 10.2067
119.696 10.1803
120.164 10.1615
120.632 10.1640
120.866 10.1870
121.100 10.2478
121.334 10.4056
121.451 10.5735
121.568 10.8824
121.685 11.5166
121.744 12.1038
121.802 13.0734
121.861 14.8148
121.919 18.3296
121.948 21.5379
121.978 26.6795
122.007 35.3839
122.036 50.2994
122.068 75.6372
122.100 93.6289
122.132 78.5331
122.164 53.9304
122.186 41.9752
122.207 33.7746
122.229 28.1741
122.251 24.2882
122.294 19.4504
122.337 16.7182
122.381 15.0388
122.424 13.9357
122.511 12.6218
122.597 11.8958
122.684 11.4498
122.857 10.9469
123.030 10.6789
123.203 10.5156
123.550 10.3276
123.896 10.2208
124.243 10.1495
124.936 10.0539
126.321 9.93005
127.707 9.83455
130.479 9.66377
133.250 9.49225
136.022 9.30313
138.793 9.07797
140.179 8.94543
140.872 8.87577
141.565 8.81146
142.257 8.78029
142.604 8.80779
142.950 8.92031
143.297 9.26947
143.470 9.67534
143.643 10.4684
143.816 12.2101
143.903 13.9177
143.990 16.8934
144.076 22.6475
144.120 27.7053
144.163 35.6593
144.206 49.0303
144.249 73.5172
144.271 93.7932
144.293 123.290
144.314 167.533
144.336 233.184
144.368 374.557
144.400 474.909
144.432 390.643
144.464 253.364
144.491 174.043
144.518 124.489
144.545 93.2938
144.572 72.9731
144.625 49.2575
144.679 36.7090
144.733 29.2880
144.787 24.5548
144.894 19.0559
145.001 16.0819
145.109 14.2809
145.324 12.2705
145.539 11.2086
145.754 10.5633
146.183 9.82021
146.613 9.39493
147.043 9.10600
147.903 8.70560
148.332 8.55521
148.762 8.43958
149.192 8.38852
149.622 8.49717
149.837 8.69143
150.052 9.08746
150.267 9.88613
150.481 11.5757
150.589 13.1163
150.696 15.5642
150.804 19.6856
150.911 27.1791
151.019 42.5022
151.072 56.6599
151.126 80.0349
151.153 97.7787
151.180 122.143
151.207 156.655
151.234 207.150
151.261 284.891
151.287 409.679
151.314 621.669
151.341 986.862
151.371 1617.47
151.400 2072.50
151.430 1694.55
151.459 1082.92
151.481 762.351
151.503 552.811
151.526 415.508
151.548 323.272
151.592 212.017
151.636 151.323
151.681 114.694
151.725 91.0249
151.814 63.1644
151.903 47.9593
151.991 38.6994
152.080 32.6070
152.169 28.3664
152.346 22.9431
152.523 19.6994
152.701 17.5761
152.878 16.0960
153.233 14.1871
153.587 13.0210
154.297 11.6726
155.006 10.9057
155.716 10.3955
157.135 9.71552
158.553 9.24692
159.263 9.08167
159.972 9.02238
160.327 9.08451
160.682 9.28083
161.037 9.74921
161.391 10.8293
161.569 11.8528
161.746 13.5138
161.923 16.3596
162.101 21.6208
162.278 32.5591
162.367 42.8160
162.455 59.9435
162.544 91.2713
162.588 117.370
162.633 156.182
162.677 217.002
162.721 317.310
162.766 492.853
162.810 809.160
162.855 1321.16
162.900 1689.25
162.945 1385.42
162.990 889.564
163.019 659.390
163.048 499.141
163.106 308.947
163.164 209.490
163.221 152.562
163.279 117.152
163.337 93.7778
163.453 65.7584
163.569 50.2528
163.684 40.7919
163.916 30.5087
164.147 26.0738
164.263 25.5031
164.378 26.4534
164.494 30.3451
164.552 34.6207
164.610 42.1604
164.668 56.4036
164.725 86.3512
164.754 114.514
164.783 161.106
164.812 242.596
164.827 305.593
164.841 389.072
164.856 499.485
164.871 626.855
164.900 797.956
164.930 657.787
164.959 427.566
164.984 294.946
165.008 211.899
165.033 159.473
165.058 125.231
165.107 85.1322
165.156 63.7132
165.206 50.9448
165.255 42.7292
165.354 33.0433
165.452 27.6764
165.551 24.3367
165.748 20.4483
165.946 18.2644
166.143 16.8589
166.537 15.1329
166.932 14.0915
167.326 13.3821
168.116 12.4590
168.905 11.8713
169.694 11.4563
171.272 10.8938
172.850 10.5148
174.429 10.2289
177.585 9.78949
180.742 9.41346
182.320 9.22187
183.898 9.01514
185.476 8.78940
186.265 8.67949
187.055 8.60487
187.449 8.60940
187.844 8.68361
188.238 8.90934
188.633 9.49451
188.830 10.0813
189.027 11.0672
189.225 12.8088
189.422 16.1271
189.619 23.2473
189.718 30.0965
189.817 41.7884
189.915 63.7790
189.965 82.5284
190.014 111.136
190.063 157.241
190.112 236.646
190.162 383.835
190.186 503.648
190.211 669.551
190.256 1095.78
190.300 1405.03
190.345 1156.06
190.389 744.946
190.427 506.535
190.464 358.278
190.502 264.766
190.539 203.829
190.614 132.837
190.689 95.1294
190.765 72.8188
190.840 58.5252
190.990 41.8775
191.140 32.8379
191.290 27.3420
191.440 23.7241
191.590 21.2004
191.891 17.9627
192.191 16.0138
192.492 14.7302
192.792 13.8294
193.393 12.6581
193.993 11.9348
194.594 11.4445
195.195 11.0893
196.396 10.6049
197.597 10.2840
200.000 9.86728
202.526 9.57724
205.051 9.35553
210.102 8.99980
215.153 8.68331
220.204 8.35815
225.255 7.98165
227.781 7.75387
230.306 7.47997
232.832 7.13336
234.094 6.92220
235.357 6.68670
235.988 6.56849
236.620 6.46802
237.251 6.42753
237.883 6.56767
238.198 6.80554
238.514 7.29085
238.830 8.27513
239.145 10.3704
239.303 12.2876
239.461 15.3403
239.619 20.4835
239.777 29.8316
239.856 37.5369
239.935 48.8808
240.014 66.4020
240.092 95.1592
240.171 146.340
240.211 187.882
240.250 248.107
240.290 339.425
240.329 483.387
240.369 721.276
240.408 1118.13
240.454 1832.22
240.500 2348.52
240.546 1930.17
240.592 1240.75
240.634 812.960
240.677 558.158
240.719 403.141
240.761 304.759
240.846 193.097
240.931 135.198
241.016 101.447
241.100 80.0346
241.270 55.3145
241.439 41.9953
241.608 33.9362
241.778 28.6407
241.947 24.9519
242.286 20.2240
242.624 17.3777
242.963 15.5012
243.302 14.1812
243.979 12.4575
244.657 11.3841
245.334 10.6477
246.012 10.1059
247.366 9.34380
248.721 8.80790
251.431 8.01752
254.141 7.34299
255.496 7.00429
256.851 6.66662
257.528 6.51461
258.205 6.40481
258.883 6.40548
259.560 6.70375
259.899 7.11524
260.238 7.90064
260.577 9.42125
260.915 12.5355
261.085 15.3109
261.254 19.6413
261.423 26.7673
261.593 39.3451
261.677 49.4318
261.762 63.9470
261.847 85.6953
261.931 119.924
262.016 177.522
262.101 282.659
262.143 369.153
262.185 494.553
262.228 680.317
262.270 955.117
262.335 1573.60
262.400 2027.57
262.465 1673.68
262.530 1080.37
262.574 792.058
262.618 593.984
262.662 458.127
262.705 363.108
262.793 244.603
262.881 177.274
262.968 135.663
263.056 108.196
263.231 75.2771
263.406 56.9516
263.581 45.6305
263.932 32.8020
264.282 25.9633
264.633 21.8183
264.983 19.0774
265.333 17.1471
266.034 14.6275
266.735 13.0620
268.137 11.2091
269.538 10.1172
270.940 9.36502
271.641 9.07130
272.341 8.86473
272.692 8.86565
272.867 8.94906
273.042 9.17210
273.217 9.74249
273.305 10.3395
273.393 11.4185
273.480 13.5789
273.524 15.5301
273.568 18.6722
273.612 24.1196
273.655 34.5426
273.677 43.5289
273.699 57.2116
273.721 78.7096
273.743 112.700
273.772 179.314
273.800 226.784
273.829 186.873
273.857 122.441
273.876 91.8518
273.895 70.8221
273.933 46.1245
273.970 33.4048
274.008 26.1723
274.046 21.7049
274.083 18.7594
274.159 15.2359
274.234 13.2786
274.310 12.0701
274.460 10.6966
274.611 9.95566
274.762 9.49658
275.064 8.95360
275.365 8.63160
275.667 8.40683
276.270 8.08744
277.476 7.64099
278.682 7.27995
281.095 6.63268
283.508 6.04104
284.714 5.79940
285.920 5.66626
287.127 5.80099
288.333 6.63650
288.936 7.66292
289.539 9.54922
290.142 13.1158
290.745 20.2987
291.047 26.6386
291.349 36.4762
291.650 52.5548
291.952 80.7437
292.103 103.212
292.253 135.384
292.404 183.292
292.555 258.217
292.706 382.870
292.857 607.036
292.932 788.549
293.007 1048.87
293.083 1428.57
293.158 1979.93
293.279 3267.58
293.400 4212.97
293.521 3476.86
293.642 2242.30
293.781 1336.70
293.920 858.594
294.059 594.178
294.198 436.673
294.337 336.077
294.476 268.225
294.754 185.163
295.031 138.031
295.309 108.598
295.865 74.9841
296.421 56.9834
296.977 46.0789
297.532 38.8899
298.088 33.8517
299.199 27.3378
300.311 23.3605
301.422 20.7013
302.534 18.8047
304.757 16.2794
306.980 14.6620
309.202 13.5181
311.425 12.6450
315.871 11.3162
318.094 10.7437
320.317 10.1701
322.540 9.53727
323.651 9.17252
324.763 8.75769
325.874 8.29218
326.430 8.06508
326.986 7.91221
327.542 8.06593
327.819 8.49969
328.097 9.59433
328.375 12.4301
328.514 15.4644
328.653 21.0567
328.722 25.6835
328.792 32.5023
328.861 42.9987
328.896 50.4306
328.931 60.0560
328.966 72.8069
329.000 89.9791
329.035 113.767
329.070 147.707
329.105 197.949
329.139 274.556
329.174 395.338
329.209 587.053
329.254 970.397
329.300 1256.75
329.346 1044.28
329.391 679.584
329.433 455.357
329.474 319.335
329.515 235.517
329.556 181.586
329.638 119.846
329.720 87.6968
329.802 69.1535
329.884 57.8484
330.048 46.8924
330.212 46.3315
330.294 50.5073
330.376 59.7307
330.458 78.4375
330.540 117.973
330.581 154.246
330.622 212.184
330.663 308.382
330.704 470.213
330.752 765.686
330.800 984.845
330.848 818.302
330.896 535.283
330.944 348.344
330.991 240.411
331.039 176.411
331.086 136.290
331.181 91.2645
331.276 67.9629
331.371 54.2824
331.466 45.4951
331.656 35.1069
331.846 29.2937
332.036 25.6252
332.416 21.2885
332.796 18.8164
333.176 17.2168
333.936 15.2556
334.697 14.0836
335.457 13.2923
336.977 12.2649
338.497 11.5985
340.017 11.1070
343.057 10.3682
346.097 9.75239
347.617 9.44469
349.137 9.11352
350.657 8.73628
351.417 8.52477
352.177 8.30647
352.558 8.20757
352.938 8.13793
353.318 8.14581
353.698 8.36205
353.888 8.65272
354.078 9.20217
354.268 10.2570
354.458 12.3976
354.648 17.2232
354.743 22.0035
354.838 30.3407
354.933 46.3365
354.980 60.2068
355.028 81.6465
355.075 116.729
355.123 178.299
355.146 227.096
355.170 295.281
355.194 392.615
355.218 529.702
355.259 873.428
355.300 1127.60
355.341 934.448
355.383 607.072
355.412 438.122
355.442 325.027
355.472 248.941
355.502 196.861
355.561 132.984
355.620 97.3705
355.680 75.5496
355.739 61.2429
355.858 44.1974
355.977 34.7295
356.096 28.8868
356.215 24.9911
356.334 22.2481
356.572 18.6899
356.810 16.5181
357.048 15.0706
357.286 14.0424
357.762 12.6819
358.237 11.8184
359.189 10.7597
360.141 10.0984
361.092 9.60892
362.995 8.82818
364.899 8.08623
365.850 7.67995
366.802 7.23831
367.278 7.01322
367.753 6.80860
368.229 6.68202
368.705 6.80106
368.943 7.09225
369.181 7.72665
369.419 9.05206
369.657 11.9050
369.776 14.5146
369.894 18.6468
370.013 25.5369
370.132 37.8315
370.192 47.7626
370.251 62.1177
370.311 83.7138
370.370 117.805
370.430 175.371
370.489 280.697
370.519 367.498
370.549 493.268
370.578 679.570
370.608 955.164
370.654 1582.64
370.700 2048.80
370.746 1699.07
370.792 1102.53
370.825 794.212
370.858 587.607
370.891 448.922
370.924 353.573
370.991 236.580
371.057 171.293
371.123 131.269
371.189 105.040
371.322 73.7193
371.454 56.2954
371.587 45.5268
371.852 33.2698
372.117 26.6836
372.382 22.6579
372.646 19.9710
372.911 18.0618
373.441 15.5574
373.706 14.7253
373.971 14.1301
374.236 13.8729
374.368 13.9951
374.501 14.4939
374.633 15.8650
374.700 17.2848
374.766 19.7645
374.832 24.4373
374.898 34.2687
374.931 43.5091
374.964 58.7622
374.998 85.3214
375.031 132.783
375.065 212.445
375.100 271.715
375.135 227.114
375.169 151.045
375.194 112.538
375.218 86.5174
375.243 68.8957
375.267 56.6904
375.316 41.5831
375.365 33.0777
375.414 27.8179
375.463 24.3451
375.560 20.1453
375.658 17.7584
375.755 16.2448
375.951 14.4400
376.146 13.3879
376.341 12.6799
376.732 11.7360
377.513 10.5578
378.295 9.68821
379.076 8.94462
379.467 8.66116
379.857 8.58567
380.053 8.74485
380.248 9.19944
380.443 10.2555
380.639 12.6536
380.834 18.4937
380.932 24.5308
381.029 35.3438
381.078 44.0942
381.127 56.6993
381.176 75.5942
381.225 105.298
381.273 155.013
381.322 244.364
381.347 316.616
381.371 419.993
381.395 570.274
381.420 788.077
381.460 1311.64
381.500 1708.38
381.540 1425.90
381.580 930.912
381.616 625.943
381.652 439.864
381.688 324.297
381.724 249.784
381.795 163.656
381.867 118.084
381.939 91.0829
382.010 73.7142
382.154 53.3101
382.297 42.0905
382.441 35.1715
382.584 30.5517
382.727 27.2840
383.014 23.0107
383.301 20.3721
383.588 18.5923
383.874 17.3152
384.448 15.6044
385.021 14.5073
386.168 13.1632
387.316 12.3485
388.463 11.7831
390.757 11.0064
393.051 10.4442
395.345 9.95251
396.492 9.70076
397.065 9.56809
397.639 9.43151
398.212 9.30270
398.499 9.25684
398.786 9.25399
399.073 9.37844
399.216 9.56811
399.359 9.97213
399.503 10.8997
399.574 11.8195
399.646 13.4164
399.718 16.4512
399.754 19.0591
399.790 23.0344
399.825 29.4573
399.861 40.4480
399.897 60.6338
399.915 76.8684
399.933 99.2792
399.950 126.918
399.966 159.410
400.000 204.797
400.034 172.166
400.067 115.278
400.103 75.2049
400.139 53.0539
400.175 40.3722
400.211 32.6405
400.283 24.2601
400.355 20.1705
400.426 17.9912
400.498 16.8457
400.642 16.4479
400.786 18.4647
400.857 20.9495
400.929 25.3682
401.001 33.5890
401.073 50.3757
401.109 65.6144
401.145 89.8858
401.180 130.177
401.216 198.069
401.258 321.493
401.300 412.872
401.342 343.668
401.384 226.086
401.421 154.117
401.458 110.325
401.496 83.2478
401.533 65.7639
401.608 45.6225
401.682 34.9844
401.757 28.6816
401.832 24.6351
401.981 19.8773
402.130 17.2515
402.279 15.6253
402.578 13.7523
402.876 12.7207
403.175 12.0709
403.772 11.2947
404.369 10.8390
404.966 10.5313
406.160 10.1240
407.354 9.84803
408.547 9.63469
410.935 9.29753
415.711 8.75429
420.487 8.23394
425.263 7.64199
427.651 7.28878
430.039 6.87838
431.233 6.65024
432.426 6.41379
433.620 6.19370
434.814 6.07287
435.411 6.12376
436.008 6.35367
436.605 6.96203
437.202 8.44076
437.799 12.2170
438.098 16.2384
438.396 23.6199
438.545 29.7031
438.695 38.6253
438.844 52.2886
438.993 74.3291
439.142 112.488
439.292 184.734
439.366 246.137
439.441 338.134
439.515 479.556
439.590 697.578
439.695 1157.81
439.800 1503.38
439.905 1251.50
440.010 814.878
