Hg-200(n,tot) ENDF/B-VII.1
Energy(eV) XS(b)
1.00000E-05 87.0949
1.25000E-05 79.4334
1.50000E-05 73.7779
2.00000E-05 65.8394
2.75000E-05 58.2859
3.50000E-05 53.3148
4.25000E-05 49.7261
5.00000E-05 46.9787
6.25000E-05 43.5524
7.50000E-05 41.0232
0.000100000 37.4730
0.000125000 35.0502
0.000150000 33.2618
0.000200000 30.7514
0.000275000 28.3628
0.000350000 26.7908
0.000425000 25.6559
0.000500000 24.7871
0.000625000 23.7036
0.000750000 22.9038
0.00100000 21.7811
0.00125000 21.0150
0.00150000 20.4494
0.00200000 19.6556
0.00275000 18.9002
0.00350000 18.4031
0.00425000 18.0442
0.00500000 17.7695
0.00625000 17.4268
0.00750000 17.1739
0.0100000 16.8189
0.0125000 16.5766
0.0150000 16.3977
0.0200000 16.1466
0.0253000 15.9666
0.0314750 15.8174
0.0376500 15.7065
0.0500000 15.5500
0.0625000 15.4416
0.0750000 15.3615
0.100000 15.2491
0.125000 15.1723
0.150000 15.1156
0.200000 15.0360
0.275000 14.9600
0.350000 14.9099
0.500000 14.8457
0.750000 14.7847
1.00000 14.7478
1.50000 14.7030
2.00000 14.6752
2.75000 14.6473
3.50000 14.6275
5.00000 14.5995
7.50000 14.5675
10.0000 14.5431
15.0000 14.5039
20.0000 14.4703
27.5000 14.4249
35.0000 14.3828
50.0000 14.3037
75.0000 14.1811
100.000 14.0661
150.000 13.8512
200.000 13.6511
275.000 13.3687
350.000 13.0982
500.000 12.5567
625.000 12.0624
750.000 11.4700
875.000 10.6797
937.500 10.1504
1000.00 9.46811
1040.04 8.90964
1080.08 8.20983
1120.11 7.30262
1160.15 6.07867
1180.17 5.29511
1200.19 4.35939
1220.21 3.24654
1240.23 1.98047
1250.24 1.35371
1260.24 0.854738
1262.75 0.775674
1265.25 0.726783
1266.50 0.716321
1267.75 0.716919
1269.00 0.730080
1270.25 0.757525
1271.51 0.801261
1272.76 0.863464
1274.01 0.946731
1275.26 1.05401
1276.51 1.18870
1277.76 1.35472
1280.26 1.79956
1282.77 2.43462
1285.27 3.32188
1287.77 4.54865
1290.27 6.23579
1292.78 8.55954
1295.28 11.7743
1297.78 16.2657
1300.28 22.6288
1302.79 31.8184
1305.29 45.4070
1307.79 66.1426
1310.29 99.0570
1312.79 153.982
1315.30 251.266
1317.80 435.462
1319.05 586.692
1320.30 798.540
1322.65 1382.83
1325.00 1866.69
1327.40 1610.31
1329.80 1080.87
1332.42 689.581
1335.04 469.665
1337.65 342.001
1340.27 262.840
1342.89 210.633
1345.51 174.382
1350.74 128.451
1355.98 101.284
1361.22 83.6999
1371.69 62.7276
1382.16 50.9008
1392.63 43.4192
1403.10 38.3031
1413.58 34.6028
1434.52 29.6328
1455.46 26.4628
1476.41 24.2699
1497.35 22.6630
1539.24 20.4616
1581.13 19.0161
1623.01 17.9848
1664.90 17.2036
1748.68 16.0730
1832.45 15.2590
1916.23 14.6064
2000.00 14.0333
2175.94 12.8599
2263.91 12.1755
2351.88 11.3093
2395.86 10.7555
2439.84 10.0708
2483.83 9.18724
2527.81 7.98611
2549.81 7.20372
2571.80 6.24683
2593.79 5.05822
2615.78 3.57622
2626.78 2.72110
2637.77 1.82408
2648.77 0.996962
2654.27 0.699869
2657.02 0.613142
2658.39 0.592044
2659.77 0.589291
2661.14 0.608058
2662.52 0.652044
2663.89 0.725709
2665.26 0.834127
2666.64 0.983604
2668.01 1.18123
2669.39 1.43601
2670.76 1.75802
2673.51 2.65759
2676.26 4.01635
2679.01 6.03860
2681.76 9.03793
2684.51 13.5096
2687.26 20.2616
2690.01 30.6635
2692.75 47.1366
2695.50 74.1659
2698.25 120.436
2701.00 203.161
2703.75 354.146
2706.88 648.221
2710.00 918.807
2713.13 827.465
2716.25 578.797
2718.48 440.005
2720.71 342.013
2722.94 273.576
2725.17 224.905
2729.63 162.724
2734.09 126.173
2738.55 102.795
2743.01 86.8497
2751.93 66.8682
2760.86 55.0833
2769.78 47.4163
2778.70 42.0733
2787.62 38.1563
2805.46 32.8262
2823.30 29.3858
2841.14 26.9889
2858.99 25.2257
2894.67 22.8056
2930.35 21.2205
2966.04 20.0982
3001.72 19.2585
3073.09 18.0768
3144.45 17.2739
3215.82 16.6829
3287.19 16.2219
3429.92 15.5280
3572.66 15.0035
3858.13 14.1683
4143.59 13.3732
4286.33 12.9118
4429.06 12.3419
4571.80 11.5575
4643.17 11.0171
4714.53 10.3023
4785.90 9.29287
4821.58 8.60736
4857.27 7.73296
4892.95 6.57978
4928.63 5.00414
4946.48 3.99686
4964.32 2.81927
4982.16 1.52170
4991.08 0.910260
4995.54 0.654618
5000.00 0.465454
5003.17 0.393589
5004.76 0.384546
5006.34 0.397840
5007.93 0.437530
5009.52 0.508422
5011.10 0.616222
5012.69 0.767731
5014.27 0.971082
5015.86 1.23604
5019.03 2.00035
5022.20 3.18840
5025.38 4.99084
5028.55 7.70170
5031.72 11.7804
5034.89 17.9687
5038.06 27.4985
5041.24 42.4730
5044.41 66.5574
5047.58 106.107
5050.75 171.229
5055.38 331.169
5060.00 492.192
5062.31 502.452
5064.63 461.851
5069.25 334.831
5074.53 226.111
5079.80 162.457
5085.08 124.457
5090.35 100.323
5095.63 84.0457
5100.90 72.5086
5111.45 57.4868
5122.01 48.2935
5132.56 42.1627
5153.66 34.5822
5174.76 30.1221
5195.86 27.2018
5216.96 25.1464
5238.07 23.6226
5280.27 21.5135
5322.47 20.1196
5364.68 19.1254
5406.88 18.3766
5491.29 17.3126
5575.70 16.5787
5660.11 16.0287
5744.51 15.5901
5913.33 14.9030
6082.14 14.3465
6419.78 13.3382
6588.59 12.7962
6757.41 12.1684
6926.22 11.3876
7095.04 10.3392
7179.45 9.65166
7263.85 8.79672
7348.26 7.70055
7432.67 6.24669
7517.08 4.26080
7559.28 3.01388
7601.49 1.63017
7622.59 0.950938
7643.69 0.385619
7648.97 0.281908
7654.24 0.201758
7659.52 0.151136
7664.79 0.137470
7670.07 0.169940
7672.71 0.206952
7675.34 0.259974
7677.98 0.330932
7680.62 0.421922
7685.89 0.673725
7691.17 1.03826
7696.44 1.54436
7701.72 2.22936
7707.00 3.14087
7717.55 5.91206
7728.10 10.6296
7738.65 18.6611
7749.20 32.4918
7759.75 56.6508
7770.30 98.8386
7777.73 144.616
7785.15 204.854
7800.00 321.728
7807.45 336.424
7814.90 316.015
7829.80 238.028
7841.52 185.419
7853.24 147.794
7864.97 121.441
7876.69 102.643
7900.13 78.4536
7923.58 64.0264
7947.02 54.6478
7970.46 48.1413
8017.35 39.8026
8064.24 34.7412
8111.13 31.3664
8158.01 28.9641
8204.90 27.1704
8298.68 24.6745
8392.45 23.0216
8486.23 21.8460
8580.00 20.9662
8580.00 18.4942
10000.0 17.7973
12812.5 17.0285
15625.0 16.4368
21250.0 15.5605
26875.0 14.9229
32500.0 14.4260
43750.0 13.6818
55000.0 13.1351
77500.0 12.3565
100000 11.8079
120000 11.1696
140000 10.6570
180000 9.87111
200000 9.55913
220000 9.28545
260000 8.82449
340000 8.13165
369756 7.92617
369800 7.92589
382350 7.84566
394900 7.76883
420000 7.62443
465000 7.29434
510000 7.00759
600000 6.52980
800000 5.81428
951978 5.53794
952020 5.53787
976010 5.49944
1.00000E+06 5.46220
1.03449E+06 5.44772
1.03449E+06 5.44772
1.06142E+06 5.43679
1.06250E+06 5.43636
1.08836E+06 5.42615
1.12500E+06 5.41213
1.14224E+06 5.40572
1.25000E+06 5.36785
1.26040E+06 5.37458
1.26043E+06 5.37461
1.29037E+06 5.39373
1.32032E+06 5.41249
1.38021E+06 5.44896
1.42368E+06 5.47461
1.48398E+06 5.50877
1.50000E+06 5.51806
1.52280E+06 5.54878
1.52284E+06 5.54883
1.52284E+06 5.54884
1.55898E+06 5.59697
1.57822E+06 5.62232
1.57822E+06 5.62232
1.58164E+06 5.62682
1.59512E+06 5.64445
1.60144E+06 5.65268
1.61249E+06 5.66704
1.61653E+06 5.67228
1.63913E+06 5.70141
1.64676E+06 5.71120
1.64968E+06 5.71494
1.65126E+06 5.71695
1.65143E+06 5.71717
1.66737E+06 5.73749
1.66740E+06 5.73753
1.68423E+06 5.75884
1.69347E+06 5.77047
1.70108E+06 5.78000
1.70894E+06 5.78981
1.71530E+06 5.79776
1.71531E+06 5.79778
1.72122E+06 5.80515
1.72697E+06 5.81230
1.72934E+06 5.81524
1.73726E+06 5.82505
1.73963E+06 5.82797
1.73963E+06 5.82798
1.74305E+06 5.83219
1.75000E+06 5.84071
1.75052E+06 5.84135
1.78456E+06 5.88352
1.80072E+06 5.90314
1.81956E+06 5.92559
1.82484E+06 5.93182
1.83368E+06 5.94215
1.83370E+06 5.94218
1.85511E+06 5.96882
1.85511E+06 5.96882
1.85765E+06 5.97197
1.86080E+06 5.97587
1.86084E+06 5.97592
1.86617E+06 5.98251
1.89240E+06 6.01441
1.97250E+06 6.10613
1.97250E+06 6.10613
1.98225E+06 6.11664
1.98426E+06 6.11879
2.00000E+06 6.13541
2.05944E+06 6.21291
2.07170E+06 6.22864
2.08476E+06 6.24532
2.08476E+06 6.24532
2.12496E+06 6.29601
2.12497E+06 6.29602
2.12718E+06 6.29878
2.13763E+06 6.31176
2.13773E+06 6.31189
2.13863E+06 6.31300
2.13863E+06 6.31300
2.14627E+06 6.32260
2.14627E+06 6.32260
2.15461E+06 6.33304
2.15462E+06 6.33305
2.16225E+06 6.34260
2.16225E+06 6.34260
2.16230E+06 6.34266
2.20054E+06 6.39018
2.20055E+06 6.39019
2.25000E+06 6.45566
2.50000E+06 6.74692
2.62320E+06 6.85223
2.75000E+06 6.95150
2.85130E+06 7.03717
3.00000E+06 7.15386
3.50000E+06 7.27305
3.75000E+06 7.33040
4.00000E+06 7.37790
4.50000E+06 7.21745
5.00000E+06 7.07181
5.50000E+06 6.75475
5.50222E+06 6.75344
5.57981E+06 6.70821
6.00000E+06 6.47774
6.50000E+06 6.14838
7.00000E+06 5.86417
7.73806E+06 5.49611
7.81565E+06 5.46069
8.00000E+06 5.37918
8.06919E+06 5.36375
8.22839E+06 5.32366
8.55189E+06 5.25153
9.03459E+06 5.16531
9.51730E+06 5.06697
1.00000E+07 4.99338
1.02500E+07 4.99199
1.05000E+07 4.99271
1.07500E+07 4.99544
1.10000E+07 5.00010
1.12500E+07 4.99887
1.15000E+07 4.99955
1.20000E+07 5.00624
1.25000E+07 5.06582
1.30000E+07 5.12582
1.35000E+07 5.18618
1.40000E+07 5.24686
1.43757E+07 5.30441
1.47514E+07 5.36181
1.47514E+07 5.36181
1.51653E+07 5.42294
1.53757E+07 5.45392
1.60000E+07 5.54547
1.70000E+07 5.62674
1.80000E+07 5.70604
1.85000E+07 5.71634
1.90000E+07 5.72675
2.00000E+07 5.72112
2.00000E+07 5.69060
2.02338E+07 5.68877
2.10000E+07 5.67421
2.14922E+07 5.65796
2.17904E+07 5.64551
2.20000E+07 5.63560
2.30000E+07 5.57813
2.32940E+07 5.55828
2.40000E+07 5.50530
2.50000E+07 5.42221
2.56510E+07 5.36312
2.60000E+07 5.32920
2.64644E+07 5.28298
2.70000E+07 5.22947
2.80000E+07 5.12690
2.80773E+07 5.11877
2.81691E+07 5.10914
2.90000E+07 5.02319
3.00000E+07 4.92470
3.01136E+07 4.91396
3.10000E+07 4.83282
3.20000E+07 4.74648
3.30000E+07 4.66505
3.36807E+07 4.61214
3.40000E+07 4.58798
3.45816E+07 4.54498
3.50000E+07 4.51480
3.60000E+07 4.44993
3.65817E+07 4.41755
3.67945E+07 4.40657
3.70000E+07 4.39638
3.79789E+07 4.35286
3.80000E+07 4.35200
3.90000E+07 4.31498
3.90117E+07 4.31459
4.00000E+07 4.28380
4.00049E+07 4.28366
4.09327E+07 4.26090
4.10000E+07 4.25953
4.20000E+07 4.24347
4.30000E+07 4.23474
4.32684E+07 4.23354
4.33289E+07 4.23333
4.40000E+07 4.23257
4.50000E+07 4.23630
4.59328E+07 4.24284
4.60000E+07 4.24337
4.70000E+07 4.25231
4.80000E+07 4.26412
4.90000E+07 4.27969
4.91745E+07 4.28285
5.00000E+07 4.29980
5.10000E+07 4.32238
5.20000E+07 4.34492
5.22247E+07 4.34999
5.23113E+07 4.35195
5.30000E+07 4.36752
5.40000E+07 4.39025
5.50000E+07 4.41320
5.53605E+07 4.42154
5.58675E+07 4.43330
5.60000E+07 4.43638
5.70000E+07 4.45957
5.80000E+07 4.48254
5.89940E+07 4.50491
5.90000E+07 4.50505
5.93350E+07 4.51245
6.00000E+07 4.52690
6.10000E+07 4.54759
6.20000E+07 4.56687
6.25620E+07 4.57718
6.30000E+07 4.58498
6.40000E+07 4.60209
6.50000E+07 4.61840
6.60000E+07 4.63327
6.70000E+07 4.64614
6.80000E+07 4.65732
6.84331E+07 4.66171
6.90000E+07 4.66709
7.00000E+07 4.67570
7.10000E+07 4.68302
7.18420E+07 4.68799
7.20000E+07 4.68880
7.30000E+07 4.69315
7.40000E+07 4.69616
7.50000E+07 4.69790
7.56075E+07 4.69837
7.60000E+07 4.69844
7.70000E+07 4.69780
7.80000E+07 4.69598
7.90000E+07 4.69301
7.95350E+07 4.69095
8.00000E+07 4.68890
8.10000E+07 4.68378
8.20000E+07 4.67776
8.30000E+07 4.67083
8.40000E+07 4.66298
8.50000E+07 4.65420
8.60000E+07 4.64465
8.70000E+07 4.63443
8.80000E+07 4.62353
8.90000E+07 4.61189
9.00000E+07 4.59950
9.10000E+07 4.58645
9.20000E+07 4.57288
9.30000E+07 4.55885
9.40000E+07 4.54441
9.50000E+07 4.52960
9.60000E+07 4.51441
9.70000E+07 4.49881
9.80000E+07 4.48279
9.90000E+07 4.46635
1.00000E+08 4.44950
1.02000E+08 4.41503
1.04000E+08 4.37987
1.06000E+08 4.34405
1.08000E+08 4.30762
1.10000E+08 4.27060
1.12000E+08 4.23328
1.14000E+08 4.19589
1.16000E+08 4.15839
1.18000E+08 4.12073
1.20000E+08 4.08290
1.22000E+08 4.04532
1.24000E+08 4.00830
1.26000E+08 3.97163
1.28000E+08 3.93515
1.30000E+08 3.89870
1.32000E+08 3.86259
1.34000E+08 3.82715
1.36000E+08 3.79233
1.38000E+08 3.75806
1.40000E+08 3.72430
1.42000E+08 3.69113
1.44000E+08 3.65863
1.46000E+08 3.62673
1.48000E+08 3.59537
1.50000E+08 3.56450