Pb-204(n,tot) ENDF/B-VII.1
Energy(eV) XS(b)
1.00000E-05 44.4301
1.25000E-05 40.9214
1.50000E-05 38.3314
2.00000E-05 34.6960
2.75000E-05 31.2368
3.50000E-05 28.9603
4.25000E-05 27.3168
5.00000E-05 26.0586
6.25000E-05 24.4896
7.50000E-05 23.3313
0.000100000 21.7055
0.000125000 20.5960
0.000150000 19.7770
0.000200000 18.6274
0.000275000 17.5336
0.000350000 16.8137
0.000425000 16.2940
0.000500000 15.8962
0.000625000 15.4000
0.000750000 15.0338
0.00100000 14.5197
0.00125000 14.1688
0.00150000 13.9098
0.00200000 13.5463
0.00275000 13.2004
0.00350000 12.9728
0.00425000 12.8085
0.00500000 12.6827
0.00625000 12.5258
0.00750000 12.4100
0.0100000 12.2474
0.0125000 12.1364
0.0150000 12.0545
0.0200000 11.9396
0.0253000 11.8572
0.0314750 11.7889
0.0376500 11.7381
0.0500000 11.6665
0.0625000 11.6169
0.0750000 11.5802
0.100000 11.5288
0.125000 11.4937
0.150000 11.4678
0.200000 11.4315
0.275000 11.3969
0.350000 11.3741
0.500000 11.3450
0.750000 11.3177
1.00000 11.3014
1.50000 11.2820
2.00000 11.2703
2.75000 11.2592
3.50000 11.2518
5.00000 11.2422
7.50000 11.2328
10.0000 11.2270
15.0000 11.2194
20.0000 11.2144
27.5000 11.2087
35.0000 11.2043
50.0000 11.1969
75.0000 11.1867
100.000 11.1774
150.000 11.1597
200.000 11.1420
269.959 11.1165
339.917 11.0896
409.876 11.0611
427.365 11.0539
444.855 11.0468
453.600 11.0438
457.972 11.0427
462.344 11.0423
466.717 11.0437
468.903 11.0460
471.089 11.0511
472.182 11.0557
473.275 11.0630
474.369 11.0754
475.462 11.0980
476.008 11.1171
476.555 11.1461
477.101 11.1930
477.648 11.2764
477.921 11.3446
478.194 11.4460
478.468 11.6054
478.741 11.8773
479.014 12.3975
479.151 12.8557
479.288 13.5834
479.424 14.8355
479.561 17.2279
479.629 19.3033
479.697 22.4947
479.766 27.5849
479.834 35.7756
479.917 50.5576
480.000 60.3867
480.084 50.4706
480.167 35.6374
480.245 26.6700
480.322 21.4453
480.400 18.3369
480.477 16.3948
480.632 14.2360
480.787 13.1469
480.942 12.5270
481.097 12.1429
481.407 11.7125
481.717 11.4902
482.026 11.3608
482.336 11.2790
482.646 11.2240
483.266 11.1569
483.886 11.1191
484.506 11.0956
485.125 11.0800
486.365 11.0611
487.604 11.0504
488.844 11.0436
490.084 11.0390
492.563 11.0330
495.042 11.0292
500.000 11.0243
507.813 11.0189
515.625 11.0145
531.250 11.0064
562.500 10.9906
625.000 10.9576
750.000 10.8827
1000.00 10.6760
1166.40 10.3915
1249.60 10.2015
1270.40 10.1465
1291.19 10.0883
1301.59 10.0590
1306.79 10.0449
1311.99 10.0324
1317.19 10.0242
1319.79 10.0244
1322.39 10.0317
1323.69 10.0408
1324.99 10.0570
1326.29 10.0863
1327.59 10.1427
1328.24 10.1913
1328.89 10.2657
1329.54 10.3873
1330.19 10.6040
1330.52 10.7816
1330.84 11.0452
1331.17 11.4596
1331.49 12.1646
1331.82 13.5067
1331.98 14.6867
1332.14 16.5397
1332.31 19.7192
1332.47 25.6806
1332.55 30.7725
1332.63 38.4828
1332.71 50.5386
1332.79 69.4912
1332.90 105.282
1333.00 128.793
1333.10 104.940
1333.21 69.2355
1333.29 49.4725
1333.38 37.2536
1333.47 29.6209
1333.55 24.7166
1333.72 18.9984
1333.89 16.0281
1334.07 14.2904
1334.24 13.2032
1334.58 11.9662
1334.92 11.3161
1335.26 10.9353
1335.61 10.6919
1335.95 10.5278
1336.64 10.3254
1337.32 10.2103
1338.01 10.1380
1338.69 10.0893
1340.06 10.0288
1341.43 9.99309
1342.80 9.96928
1344.17 9.95191
1346.91 9.92707
1349.65 9.90872
1355.13 9.87965
1360.61 9.85436
1366.10 9.83022
1377.06 9.78224
1420.91 9.56775
1464.76 9.29030
1508.60 8.90619
1530.53 8.64949
1552.45 8.32575
1574.38 7.90290
1596.30 7.32650
1607.27 6.95325
1618.23 6.50205
1629.19 5.95469
1640.15 5.30740
1645.63 4.96582
1651.11 4.65879
1656.60 4.49775
1657.97 4.50882
1659.34 4.55452
1660.71 4.64614
1661.39 4.71371
1662.08 4.79885
1662.76 4.90449
1663.45 5.03359
1664.13 5.19013
1664.82 5.37867
1665.50 5.60463
1666.19 5.87448
1667.56 6.57854
1668.93 7.57561
1670.30 8.98969
1671.67 11.0139
1673.04 13.9535
1674.41 18.3150
1675.78 24.9595
1677.15 35.4691
1678.52 52.9223
1679.89 83.8690
1680.58 108.517
1681.26 143.536
1681.95 194.701
1682.63 271.632
1683.32 390.082
1684.00 572.930
1685.00 981.708
1686.00 1313.28
1687.00 1123.70
1688.00 750.805
1688.61 578.416
1689.22 453.203
1690.44 297.219
1691.66 211.326
1692.88 160.030
1694.09 127.051
1695.31 104.600
1697.75 76.7363
1700.19 60.5822
1702.63 50.2785
1707.50 38.1600
1712.38 31.4216
1717.25 27.2006
1722.13 24.3354
1727.00 22.2749
1736.75 19.5258
1746.50 17.7848
1756.25 16.5870
1766.00 15.7133
1785.50 14.5233
1805.00 13.7473
1824.50 13.1975
1844.00 12.7838
1883.00 12.1924
1922.00 11.7757
1961.00 11.4517
2000.00 11.1796
2059.64 10.8118
2119.27 10.4559
2178.91 10.0667
2238.54 9.58590
2268.36 9.28135
2298.18 8.90581
2327.99 8.42123
2357.81 7.76064
2372.72 7.32851
2387.63 6.79744
2402.54 6.13316
2417.45 5.29622
2424.90 4.80770
2432.35 4.28954
2439.81 3.80399
2443.54 3.62619
2445.40 3.57319
2447.26 3.55751
2449.13 3.59403
2450.06 3.63809
2450.99 3.70365
2451.92 3.79472
2452.86 3.91611
2453.79 4.07363
2454.72 4.27409
2456.58 4.84121
2458.45 5.71194
2460.31 7.03424
2462.17 9.04069
2464.04 12.1202
2465.90 16.9360
2467.76 24.7051
2469.63 37.7641
2471.49 61.0341
2472.42 79.5549
2473.35 105.716
2474.29 143.663
2475.22 200.013
2476.15 285.306
2477.08 414.250
2478.54 724.990
2480.00 989.401
2481.47 862.620
2482.93 586.276
2484.67 364.856
2486.41 245.352
2488.16 178.022
2489.90 137.126
2491.64 110.490
2493.38 92.1639
2496.86 69.1066
2500.35 55.5427
2503.83 46.7807
2510.79 36.3328
2517.76 30.4280
2524.72 26.6823
2531.69 24.1126
2538.66 22.2488
2552.59 19.7363
2566.52 18.1272
2580.45 17.0106
2594.38 16.1908
2622.24 15.0665
2650.11 14.3297
2677.97 13.8085
2684.93 13.7021
2691.90 13.6061
2695.38 13.5649
2698.87 13.5378
2700.61 13.5416
2701.48 13.5565
2702.35 13.5924
2703.22 13.6793
2703.65 13.7680
2704.09 13.9276
2704.53 14.2527
2704.74 14.5552
2704.96 15.0598
2705.18 16.0008
2705.29 16.8035
2705.40 18.0226
2705.50 20.0319
2705.61 23.5939
2705.72 30.5354
2705.78 36.3955
2705.83 44.8354
2705.92 63.6145
2706.00 76.1098
2706.09 63.4073
2706.17 44.6854
2706.24 34.6907
2706.31 28.3521
2706.37 24.3060
2706.44 21.6371
2706.57 18.5150
2706.71 16.8580
2706.84 15.8844
2706.98 15.2670
2707.24 14.5599
2707.51 14.1861
2707.78 13.9646
2708.32 13.7249
2708.85 13.6031
2709.39 13.5314
2710.46 13.4512
2711.53 13.4063
2712.60 13.3758
2714.75 13.3329
2719.04 13.2714
2723.32 13.2202
2731.90 13.1284
2740.47 13.0444
2774.77 12.7588
2843.38 12.3416
2911.98 12.0447
2980.58 11.8176
3117.78 11.4819
3254.99 11.2338
3529.40 10.8625
3666.60 10.7101
3700.90 10.6743
3735.20 10.6395
3752.35 10.6227
3769.50 10.6073
3778.08 10.6014
3786.65 10.6005
3790.94 10.6070
3795.23 10.6331
3797.37 10.6728
3798.44 10.7130
3799.52 10.7865
3800.59 10.9408
3801.12 11.0906
3801.66 11.3544
3801.93 11.5688
3802.20 11.8845
3802.46 12.3763
3802.73 13.2028
3803.00 14.7472
3803.13 16.0742
3803.27 18.1294
3803.40 21.5340
3803.54 27.6839
3803.60 32.7167
3803.67 40.0286
3803.74 50.8803
3803.80 66.6648
3803.90 100.547
3804.00 122.863
3804.10 100.257
3804.20 66.7597
3804.31 42.3257
3804.43 30.0094
3804.55 23.4495
3804.67 19.6540
3804.78 17.2923
3804.90 15.7337
3805.13 13.8857
3805.37 12.8699
3805.60 12.2568
3806.07 11.5878
3806.54 11.2490
3807.00 11.0548
3807.94 10.8514
3808.87 10.7524
3809.81 10.6967
3811.68 10.6389
3815.42 10.5939
3819.16 10.5754
3826.63 10.5572
3834.11 10.5460
3849.07 10.5287
3864.03 10.5133
3923.85 10.4556
3983.68 10.3999
4043.51 10.3454
4163.17 10.2390
4223.00 10.1872
4252.91 10.1631
4260.39 10.1587
4267.87 10.1581
4271.61 10.1632
4275.35 10.1836
4277.22 10.2147
4278.15 10.2461
4279.08 10.3035
4280.02 10.4240
4280.49 10.5410
4280.95 10.7465
4281.42 11.1596
4281.66 11.5424
4281.89 12.1810
4282.12 13.3746
4282.24 14.3966
4282.36 15.9569
4282.47 18.5442
4282.59 23.1770
4282.71 32.3491
4282.77 40.2206
4282.82 51.7109
4282.91 76.8477
4283.00 93.3879
4283.09 76.6257
4283.18 51.8098
4283.23 40.9791
4283.28 33.4694
4283.39 24.3907
4283.50 19.5698
4283.60 16.7854
4283.71 15.0547
4283.81 13.9133
4284.03 12.5566
4284.24 11.8127
4284.45 11.3662
4284.88 10.8779
4285.30 10.6306
4285.72 10.4890
4286.57 10.3405
4287.42 10.2682
4288.27 10.2274
4289.97 10.1851
4293.36 10.1519
4296.76 10.1381
4303.55 10.1242
4310.34 10.1155
4337.50 10.0893
4391.82 10.0421
4500.46 9.94982
4609.10 9.85851
4636.26 9.83623
4663.42 9.81536
4677.00 9.80698
4690.58 9.80467
4697.37 9.81202
4700.77 9.82240
4704.16 9.84392
4707.56 9.89348
4709.25 9.94426
4710.95 10.0375
4712.65 10.2354
4713.50 10.4291
4714.35 10.7730
4714.77 11.0556
4715.19 11.4741
4715.62 12.1349
4716.04 13.2600
4716.47 15.4180
4716.68 17.3145
4716.89 20.3264
4717.10 25.4993
4717.32 35.3720
4717.42 43.9203
4717.53 57.0403
4717.63 77.9177
4717.74 111.433
4717.87 172.567
4718.00 213.425
4718.13 172.797
4718.26 111.724
4718.40 70.8027
4718.54 48.6639
4718.67 36.2379
4718.81 28.8270
4718.95 24.0561
4719.09 20.8694
4719.36 16.9882
4719.64 14.8202
4719.91 13.5005
4720.46 12.0405
4721.01 11.2938
4721.56 10.8630
4722.11 10.5916
4722.66 10.4096
4723.76 10.1879
4724.86 10.0631
4727.07 9.93419
4729.27 9.87169
4731.47 9.83618
4735.87 9.79826
4744.67 9.76561
4753.48 9.74901
4771.09 9.72729
4788.70 9.70982
4859.13 9.64712
4929.57 9.58603
5000.00 9.52475
5212.07 9.33615
5424.14 9.13768
5848.28 8.68395
6060.34 8.39912
6272.41 8.01523
6378.45 7.73380
6431.47 7.54282
6484.48 7.28789
6537.50 6.91132
6564.01 6.63665
6590.52 6.25422
6603.77 5.99799
6617.03 5.67469
6630.28 5.25294
6643.53 4.68019
6650.16 4.31117
6656.79 3.86753
6663.42 3.33313
6670.04 2.70596
6676.67 2.07328
6678.33 1.95704
6679.98 1.88960
6681.64 1.90577
6683.30 2.06408
6684.13 2.22604
6684.95 2.46668
6685.78 2.81250
6686.61 3.29821
6687.44 3.97465
6688.27 4.91048
6689.10 6.20773
6689.92 8.01560
6690.75 10.5625
6691.58 14.1895
6692.41 19.4575
6693.24 27.2527
6694.07 39.1024
6694.89 57.5454
6695.72 86.9224
6696.55 133.880
6697.78 246.850
6699.00 353.335
6699.61 354.896
6700.23 321.423
6701.45 227.060
6702.27 176.899
6703.08 140.456
6704.71 95.3400
6706.34 70.5192
6707.97 55.6053
6709.60 45.9192
6711.23 39.2451
6714.49 30.7934
6717.76 25.7604
6721.02 22.4656
6727.54 18.4634
6734.06 16.1480
6740.58 14.6490
6747.10 13.6026
6753.63 12.8318
6766.67 11.7723
6779.71 11.0775
6792.76 10.5851
6805.80 10.2164
6831.89 9.69651
6857.97 9.34215
6910.15 8.87480
6962.32 8.56341
7014.50 8.32667
7118.85 7.95642
7327.54 7.34053
7536.24 6.68381
7640.59 6.29027
7744.94 5.82027
7849.29 5.23447
7953.64 4.46949
8005.81 3.98935
8057.98 3.42179
8110.16 2.74969
8162.33 1.97460
8214.51 1.20523
8227.55 1.06401
8234.07 1.01270
8240.60 0.979520
8247.12 0.969741
8253.64 0.990164
8260.16 1.04955
8263.42 1.09729
8266.68 1.15927
8273.20 1.33427
8279.73 1.59426
8286.25 1.96557
8292.77 2.48364
8299.29 3.19719
8305.81 4.17337
8312.34 5.50663
8318.86 7.33149
8325.38 9.84423
8331.90 13.3341
8338.42 18.2368
8344.94 25.2187
8351.47 35.3169
8357.99 50.1382
8364.51 72.1139
8371.03 104.575
8383.02 199.754
8395.00 294.148
8401.00 299.181
8406.99 274.138
8418.98 197.764
8429.57 144.808
8440.16 109.808
8450.75 86.7990
8461.34 71.1671
8482.52 52.0316
8503.70 41.1641
8524.88 34.3281
8546.06 29.6956
8588.43 23.8931
8630.79 20.4439
8673.15 18.1706
8715.51 16.5611
8757.87 15.3598
8842.59 13.6752
8927.32 12.5313
9012.04 11.6803
9054.40 11.3241
9075.58 11.1642
9080.88 11.1311
9086.17 11.1130
9088.82 11.1242
9091.47 11.1918
9092.79 11.3007
9094.11 11.6104
9094.78 12.0169
9095.11 12.3975
9095.44 13.0404
9095.77 14.2482
9095.93 15.2939
9096.10 16.9088
9096.27 19.6119
9096.43 24.4908
9096.51 28.5267
9096.60 34.3387
9096.68 43.1092
9096.76 56.0081
9096.88 83.1397
9097.00 101.330
9097.12 83.3836
9097.24 56.3123
9097.37 37.5794
9097.51 27.6992
9097.64 22.2582
9097.77 19.0557
9097.90 17.0117
9098.04 15.6553
9098.30 14.0127
9098.57 13.0994
9098.83 12.5447
9099.36 11.9311
9099.89 11.6159
9100.42 11.4326
9101.48 11.2360
9103.61 11.0761
9105.73 11.0070
9109.97 10.9360
9114.21 10.8905
9131.18 10.7542
9165.12 10.5152
9233.00 10.0612
9300.88 9.60357
9368.77 9.09744
9436.65 8.45957
9470.59 8.03622
9504.53 7.47748
9521.50 7.11563
9538.47 6.66862
9555.44 6.09715
9572.41 5.33664
9580.90 4.85434
9589.38 4.28140
9597.87 3.60056
9606.35 2.81332
9614.84 2.02522
9619.08 1.77923
9621.20 1.77051
9623.32 1.90624
9624.38 2.05560
9625.44 2.28059
9626.50 2.60355
9627.56 3.05362
9628.62 3.67135
9629.68 4.50928
9630.75 5.64267
9631.81 7.17147
9632.87 9.24211
9633.93 12.0577
9634.99 15.9121
9636.05 21.2264
9637.11 28.6322
9638.17 39.0121
9639.23 53.6413
9640.29 74.0953
9641.47 105.583
9642.65 146.334
9645.00 222.473
9646.18 229.702
9647.36 213.491
9649.71 158.059
9652.45 108.419
9655.18 79.1716
9657.92 61.6568
9660.66 50.4957
9663.39 42.9388
9666.13 37.5621
9671.60 30.5277
9677.08 26.1930
9682.55 23.2852
9693.50 19.6620
9704.44 17.5094
9715.39 16.0879
9726.34 15.0794
9737.28 14.3260
9759.18 13.2720
9781.07 12.5653
9802.96 12.0541
9824.86 11.6638
9868.64 11.0987
9912.43 10.7003
10000.0 10.1529
10085.5 9.81540
10171.1 9.56041
10342.2 9.17931
10513.2 8.88737
10684.3 8.64001
11026.5 8.19916
11197.5 7.98135
11283.1 7.86938
11325.9 7.81684
11336.5 7.80866
11347.2 7.81371
11352.6 7.83499
11357.9 7.91014
11360.6 8.02114
11361.9 8.13258
11363.3 8.33193
11364.6 8.74650
11365.3 9.14135
11365.9 9.80861
11366.6 11.1141
11367.0 12.2975
11367.3 14.1404
11367.6 17.4542
11368.0 23.7198
11368.1 29.4197
11368.3 37.7520
11368.5 52.0935
11368.6 74.1495
11368.8 115.346
11369.0 141.197
11369.2 113.663
11369.4 74.7856
11369.6 49.5906
11369.8 35.8217
11370.0 27.2183
11370.1 22.1490
11370.5 16.3541
11370.9 13.4969
11371.2 11.8173
11371.6 10.7784
11372.3 9.62678
11373.1 9.02121
11373.8 8.67215
11375.3 8.29728
11376.7 8.11140
11378.2 8.00514
11381.2 7.89298
11387.0 7.80307
11392.9 7.76444
11404.7 7.72473
11416.4 7.69922
11463.5 7.62116
11510.5 7.54799
11557.5 7.47341
11745.7 7.14259
11933.8 6.72948
12121.9 6.17355
12216.0 5.80817
12310.0 5.35247
12404.1 4.76467
12498.2 3.97605
12545.2 3.47300
12592.2 2.87296
12639.3 2.15604
12686.3 1.31907
12733.3 0.456011
12745.1 0.280358
12751.0 0.208663
12756.8 0.152199
12762.7 0.115429
12768.6 0.104009
12774.5 0.125140
12780.3 0.187898
12786.2 0.304357
12792.1 0.489853
12798.0 0.764517
12803.9 1.15487
12809.7 1.69614
12815.6 2.43562
12821.5 3.43736
12827.4 4.78640
12833.3 6.60842
12839.1 9.07084
12845.0 12.4124
12850.9 16.9717
12856.8 23.2286
12862.7 31.8560
12868.5 43.7654
12874.4 60.0608
12888.7 123.408
12903.0 192.594
12910.2 200.825
12917.3 188.225
12931.6 141.227
12945.5 103.753
12959.3 79.2435
12973.1 63.3228
12987.0 52.6000
13000.8 45.0489
13014.7 39.5279
13042.4 32.0988
13070.1 27.4047
13097.7 24.2053
13153.1 20.1655
13208.5 17.7400
13263.9 16.1303
13319.3 14.9876
13333.1 14.7538
13346.9 14.5418
13353.9 14.4496
13360.8 14.3857
13364.2 14.3895
13367.7 14.4912
13369.4 14.6706
13370.3 14.8569
13371.2 15.1889
13372.0 15.8701
13372.5 16.4933
13372.9 17.5268
13373.3 19.4725
13373.6 21.1218
13373.8 23.4951
13374.0 27.4661
13374.2 33.9310
13374.4 46.4265
13374.6 69.3967
13374.8 102.839
13375.0 125.368
13375.2 103.395
13375.4 70.0898
13375.6 49.5156
13375.7 37.6135
13375.9 30.5739
13376.1 26.3851
13376.4 21.5231
13376.8 19.0430
13377.2 17.5886
13377.5 16.7103
13378.2 15.7137
13378.9 15.1837
13379.6 14.8742
13381.0 14.5347
13383.8 14.2472
13386.6 14.1163
13392.3 13.9732
13397.9 13.8769
13409.1 13.7224
13420.4 13.5870
13442.9 13.3427
13465.3 13.1222
13555.3 12.4033
13645.2 11.8636
13735.2 11.4401
13915.1 10.8078
14095.0 10.3396
14274.9 9.94673
14454.8 9.54517
14544.7 9.28703
14589.7 9.11706
14634.7 8.89113
14657.2 8.74222
14679.7 8.55393
14702.2 8.30393
14724.6 7.94972
14735.9 7.70797
14747.1 7.39812
14758.4 6.98481
14769.6 6.40447
14775.2 6.01576
14780.9 5.53031
14786.5 4.90816
14792.1 4.09067
14797.7 3.00216
14800.5 2.34560
14803.3 1.66009
14806.1 1.14756
14807.6 1.16014
14808.3 1.32206
14809.0 1.65588
14809.7 2.25727
14810.4 3.24229
14811.1 4.82505
14811.8 7.33949
14812.5 11.4035
14813.2 17.8192
14813.9 28.1112
14814.6 44.5170
14815.2 65.8601
14815.8 94.4024
14817.0 151.166
14817.6 159.683
14818.2 151.350
14819.4 116.120
14820.5 88.5005
14821.6 69.7357
14822.7 56.9850
14823.8 48.2389
14826.0 37.2391
14828.2 30.8339
14830.4 26.7238
14832.6 23.8929
14836.9 20.2893
14841.3 18.1022
14845.7 16.6447
14850.1 15.6069
14854.5 14.8331
14863.2 13.7526
14872.0 13.0370
14880.7 12.5274
14889.5 12.1457
14907.0 11.6106
14924.5 11.2521
14942.0 10.9935
14959.5 10.7973
14994.5 10.5161
15029.5 10.3215
15099.5 10.0619
15169.5 9.88945
15239.6 9.76132
15379.6 9.57374
15519.7 9.43447
15659.7 9.32146
15799.7 9.22477
15869.8 9.18076
15904.8 9.16009
15922.3 9.15335
15931.0 9.16646
15935.4 9.24094
15936.5 9.31893
15937.6 9.52821
15938.1 9.79949
15938.7 10.4538
15939.0 11.2389
15939.2 12.8611
15939.4 14.5080
15939.5 17.1465
15939.6 22.4915
15939.8 32.2720
15939.9 46.9439
15940.0 55.7621
15940.1 45.9326
15940.2 32.6292
15940.3 24.5500
15940.4 20.0458
15940.6 15.2320
15940.8 12.8783
15941.0 11.7012
15941.3 10.5329
15941.7 10.0244
15942.4 9.58247
15943.2 9.40799
15944.6 9.26915
15946.1 9.21576
15952.0 9.15699
15963.7 9.13413
15987.3 9.11591
16034.3 9.08839
16128.3 9.03827
16316.4 8.94628
16692.5 8.78281
17068.6 8.63533
17256.7 8.56452
17350.7 8.52941
17397.7 8.51277
17421.2 8.50962
17433.0 8.53093
17438.8 8.63301
17440.3 8.73688
17441.8 9.01618
17442.5 9.37745
17443.2 10.2581
17443.6 11.2929
17444.0 13.4459
17444.2 15.6878
17444.3 19.4363
17444.5 26.5632
17444.6 32.5152
17444.7 41.5480
17444.9 61.1465
17445.0 74.9223
17445.2 61.4039
17445.3 41.8668
17445.4 32.8221
17445.5 26.8477
17445.7 19.3982
17445.9 15.5852
17446.1 13.4369
17446.4 11.2686
17446.8 10.2633
17447.6 9.39352
17448.3 9.03853
17449.9 8.75684
17451.4 8.64946
17457.4 8.53475
17469.6 8.49864
17493.8 8.48046
17542.4 8.45972
17590.9 8.44630
17603.0 8.44956
17615.1 8.47088
17621.2 8.50756
17627.3 8.61954
17630.3 8.77781
17631.8 8.93414
17633.3 9.21042
17634.9 9.77361
17635.6 10.2988
17636.4 11.1678
17637.1 12.8035
17637.5 14.2019
17637.9 16.3526
17638.3 19.8756
17638.7 26.1211
17639.0 38.2630
17639.2 48.5824
17639.4 62.4975
17639.7 94.9800
17640.0 116.841
17640.3 94.7626
17640.6 62.7622
17640.8 46.5904
17641.0 36.3391
17641.3 29.4549
17641.5 24.7223
17641.9 18.9367
17642.3 15.7261
17642.7 13.7450
17643.2 12.4965
17644.0 11.0330
17644.8 10.2349
17645.7 9.76225
17647.4 9.24350
17649.1 8.98098
17650.8 8.82929
17654.1 8.66889
17660.9 8.54266
17667.6 8.49285
17681.1 8.45090
17694.6 8.43143
17721.6 8.40966
17748.6 8.39474
17802.6 8.37022
17856.6 8.34776
17964.6 8.30381
18072.6 8.25869
18180.6 8.21022
18288.6 8.15386
18342.6 8.11843
18369.6 8.09658
18396.6 8.06941
18423.6 8.03181
18437.1 8.00534
18450.6 7.96880
18464.1 7.91248
18470.9 7.86977
18477.6 7.80806
18484.4 7.70948
18487.8 7.63333
18491.1 7.52337
18494.5 7.34871
18496.2 7.21645
18497.9 7.03099
18499.6 6.74935
18501.3 6.28386
18502.1 5.92912
18502.9 5.49691
18503.4 5.33079
18503.8 5.48295
18504.0 5.96587
18504.2 7.21241
18504.4 10.3242
18504.5 13.5329
18504.6 18.2336
18504.7 24.9545
18504.8 33.2156
18505.0 50.8727
18505.1 53.6386
18505.2 51.2747
18505.4 40.7363
18505.5 34.0288
18505.7 28.6864
18505.8 24.8271
