Pb-208(n,tot) ENDF/B-VII.1
Energy(eV) XS(b)
1.00000E-05 11.3831
1.25000E-05 11.3819
1.50000E-05 11.3810
2.00000E-05 11.3797
2.75000E-05 11.3785
3.50000E-05 11.3777
4.25000E-05 11.3771
5.00000E-05 11.3766
6.25000E-05 11.3761
7.50000E-05 11.3757
0.000100000 11.3751
0.000125000 11.3747
0.000150000 11.3744
0.000200000 11.3740
0.000275000 11.3737
0.000350000 11.3734
0.000425000 11.3732
0.000500000 11.3731
0.000625000 11.3729
0.000750000 11.3728
0.00100000 11.3726
0.00125000 11.3725
0.00150000 11.3724
0.00200000 11.3723
0.00275000 11.3721
0.00350000 11.3720
0.00500000 11.3719
0.00750000 11.3719
0.0100000 11.3718
0.0150000 11.3717
0.0200000 11.3717
0.0253000 11.3717
0.0376500 11.3716
0.0500000 11.3716
0.0750000 11.3716
0.100000 11.3715
0.150000 11.3715
0.200000 11.3715
0.275000 11.3715
0.350000 11.3715
0.500000 11.3715
0.750000 11.3714
1.00000 11.3714
1.50000 11.3714
2.00000 11.3714
2.75000 11.3714
3.50000 11.3714
5.00000 11.3713
7.50000 11.3713
10.0000 11.3712
15.0000 11.3712
20.0000 11.3711
27.5000 11.3709
35.0000 11.3708
50.0000 11.3705
75.0000 11.3700
100.000 11.3696
150.000 11.3687
200.000 11.3677
275.000 11.3664
350.000 11.3650
500.000 11.3622
750.000 11.3576
1000.00 11.3531
1500.00 11.3439
2000.00 11.3347
2750.00 11.3210
3500.00 11.3073
5000.00 11.2799
7500.00 11.2345
10000.0 11.1892
15000.0 11.0993
20000.0 11.0102
26815.0 10.8900
33629.9 10.7712
40444.9 10.6541
43852.3 10.5964
45556.1 10.5678
46407.9 10.5536
46833.9 10.5465
47046.8 10.5430
47153.3 10.5412
47206.6 10.5404
47233.2 10.5401
47246.5 10.5407
47253.2 10.5440
47256.5 10.5569
47258.1 10.6022
47259.0 10.7401
47259.4 11.0771
47259.8 13.3172
47260.0 16.1027
47260.2 13.3249
47260.5 11.2130
47260.9 10.8204
47261.5 10.6327
47262.9 10.5666
47265.6 10.5468
47270.9 10.5412
47281.6 10.5396
47303.0 10.5389
47345.8 10.5380
47431.4 10.5366
47602.7 10.5337
47945.2 10.5281
48630.1 10.5168
50000.0 10.4943
55289.9 10.4106
57934.8 10.3717
60579.8 10.3371
63224.7 10.3112
65869.6 10.3065
67192.1 10.3245
68514.6 10.3815
69175.8 10.4487
69837.0 10.5970
70167.7 10.7592
70498.3 11.1201
70663.6 11.5229
70746.2 11.8701
70828.9 12.4234
70911.6 13.4062
70952.9 14.2237
70994.2 15.4661
71035.5 17.5008
71076.9 21.1819
71097.5 24.2428
71118.2 28.7974
71138.8 35.8345
71159.5 46.8959
71210.0 83.7658
71222.6 81.0188
71235.3 70.8814
71260.5 46.8084
71285.9 31.1642
71311.4 22.8051
71336.8 18.2380
71362.2 15.5859
71387.7 13.9505
71413.1 12.8903
71464.0 11.6716
71514.8 11.0442
71565.7 10.6917
71667.4 10.3498
71769.1 10.2107
71870.9 10.1516
72074.3 10.1235
72481.2 10.1652
72888.1 10.2350
73701.9 10.4167
74515.8 10.7094
75329.6 11.2770
75736.5 11.7903
76143.4 12.6245
76550.3 14.0944
76957.2 16.9825
77160.7 19.5442
77364.1 23.5587
77567.6 30.1171
77771.0 41.0209
78250.0 76.9604
78489.5 66.2271
78729.0 46.1568
78972.6 32.4936
79216.1 24.7768
79459.6 20.3143
79703.2 17.5766
79946.7 15.7969
80190.3 14.5810
80677.3 13.0769
81164.4 12.2163
81651.5 11.6759
82625.7 11.0541
83599.8 10.7158
84574.0 10.5046
85548.1 10.3643
86035.2 10.3629
86157.0 10.4196
86278.8 10.6081
86339.7 10.8634
86370.1 11.0987
86400.5 11.4832
86431.0 12.1604
86461.4 13.4804
86476.6 14.6383
86491.9 16.4307
86507.1 19.3101
86522.3 24.0035
86560.0 40.4901
86578.9 35.8993
86597.7 26.8656
86610.8 22.2668
86623.9 19.1302
86637.0 17.0069
86650.1 15.5400
86676.2 13.7363
86702.4 12.7269
86728.6 12.1090
86754.8 11.7039
86807.1 11.2209
86859.5 10.9526
86911.8 10.7863
87016.5 10.5957
87225.9 10.4254
87435.4 10.3456
88273.0 10.2125
89948.3 10.0963
93298.9 9.96079
96649.4 9.86463
100000 9.78388
104265 9.69009
108531 9.59700
110663 9.54749
112796 9.49557
113862 9.47381
114395 9.46977
114928 9.48049
115462 9.53388
115728 9.60260
115995 9.74067
116261 10.0430
116395 10.3319
116528 10.8163
116661 11.6923
116795 13.4518
116861 15.0348
116928 17.5333
116994 21.6496
117061 28.5749
117220 53.8357
117300 48.1431
117379 34.9290
117429 28.5810
117479 24.0553
117579 18.5811
117679 15.6756
117779 13.9884
117879 12.9290
117978 12.2209
118178 11.3596
118378 10.8715
118578 10.5651
118977 10.2106
119377 10.0157
119777 9.89381
120176 9.81045
120576 9.74962
121375 9.66566
122174 9.60897
123772 9.53293
125370 9.47979
126969 9.43727
127768 9.41835
128567 9.40056
129366 9.38434
129766 9.38083
129866 9.38428
129965 9.39867
130015 9.42107
130065 9.48634
130090 9.57619
130103 9.66390
130115 9.81736
130128 10.1280
130134 10.4190
130140 10.8991
130147 11.8074
130150 12.5719
130153 13.7437
130156 15.6562
130159 19.0332
130162 25.5750
130164 31.3453
130165 39.1278
130168 57.4444
130170 69.1780
130173 57.0955
130175 39.5834
130178 26.5379
130181 20.0859
130183 16.5695
130186 14.5008
130189 13.1607
130192 12.3045
130198 11.2741
130203 10.6960
130209 10.3512
130220 9.97002
130231 9.77380
130243 9.66051
130265 9.54150
130310 9.44946
130355 9.41456
130445 9.38700
130535 9.37560
130716 9.36470
130896 9.35838
131617 9.34151
133059 9.31389
134501 9.28804
135942 9.26311
141710 9.16855
147477 9.07779
148919 9.05485
150361 9.03095
151082 9.01797
151803 9.00294
152163 8.99343
152524 8.98013
152704 8.96996
152884 8.95362
153064 8.91981
153155 8.89622
153177 8.90702
153200 8.98021
153211 9.10905
153222 9.47610
153228 9.94019
153233 10.9418
153236 11.9152
153239 13.5748
153242 16.5976
153245 22.3791
153250 41.6890
153251 41.7770
153253 38.4480
153255 28.6533
153258 21.7907
153261 17.8282
153263 15.4113
153266 13.8685
153271 12.1097
153276 11.1881
153281 10.6441
153286 10.2945
153296 9.88304
153306 9.65569
153316 9.51468
153336 9.35261
153376 9.20894
153416 9.14483
153496 9.08607
153576 9.05846
153736 9.03131
153896 9.01719
154216 9.00111
154536 8.99084
155176 8.97589
155816 8.96365
157096 8.94174
158376 8.92093
159656 8.90017
160936 8.87857
161576 8.86682
162216 8.85324
162536 8.84471
162856 8.83290
163016 8.82396
163176 8.80957
163336 8.77883
163416 8.75106
163456 8.79577
163466 8.88226
163476 9.14835
163481 9.49305
163486 10.2805
163488 11.0786
163491 12.4986
163493 15.2438
163495 17.6811
163496 21.1408
163500 39.1677
163501 39.4126
163502 36.4985
163504 27.3150
163506 20.5850
163509 16.6434
163511 14.3617
163513 12.9604
163517 11.4200
163522 10.6385
163531 9.89829
163539 9.56580
163557 9.26647
163574 9.13591
163610 9.01949
163645 8.96727
163715 8.91906
163785 8.89618
163925 8.87338
164066 8.86127
164346 8.84705
164627 8.83755
165750 8.80943
166311 8.79552
166873 8.77925
167434 8.75729
167715 8.74456
167855 8.75453
167890 8.77462
167926 8.83787
167943 8.92702
167961 9.16542
167969 9.46832
167978 10.1852
167983 10.9912
167987 12.6390
167989 14.1716
167991 16.7019
167994 21.1417
167996 29.0837
167998 41.2234
168000 49.9623
168002 41.7451
168004 29.5954
168006 22.1647
168008 17.7182
168010 15.0605
168012 13.3924
168016 11.5339
168020 10.5909
168028 9.71611
168036 9.33731
168052 9.02308
168068 8.89754
168100 8.79657
168132 8.75518
168196 8.71706
168260 8.69760
168324 8.69192
168388 8.73269
168420 8.82324
168436 8.92289
168452 9.10497
168468 9.47059
168476 9.79441
168484 10.3001
168492 11.1324
168500 12.5946
168508 15.3650
168516 20.8464
168530 38.8514
168534 39.2676
168537 36.2876
168544 27.3583
168551 21.2066
168557 17.4557
168564 15.1028
168570 13.6132
168583 11.8880
168596 10.9789
168609 10.4403
168622 10.0931
168647 9.68437
168673 9.45654
168699 9.31482
168751 9.15167
168802 9.06210
168854 9.00672
168957 8.94421
169060 8.91635
169163 8.92354
169215 8.96038
169240 9.00254
169266 9.08160
169292 9.24782
169305 9.40481
169318 9.66727
169330 10.1585
169337 10.5800
169343 11.2132
169350 12.2543
169356 14.0355
169363 17.3772
169369 23.9852
169375 33.3386
169380 39.7645
169386 33.8101
169391 24.6055
169397 18.1039
169403 14.7266
169410 12.8303
169416 11.7224
169422 11.0071
169428 10.5350
169440 9.95727
169453 9.63428
169465 9.43542
169489 9.21315
169514 9.09632
169539 9.02691
169588 8.95069
169686 8.88608
169784 8.85743
169981 8.82932
170177 8.81393
170571 8.79495
170964 8.78200
171750 8.76272
172536 8.74716
174109 8.72035
175682 8.69599
178827 8.65017
181972 8.60609
188263 8.52031
194553 8.43636
219716 8.11077
244878 7.79365
257459 7.63275
260604 7.59082
263750 7.54717
266895 7.50103
267681 7.49018
268467 7.48408
268861 7.48910
269057 7.49840
269254 7.51920
269450 7.56865
269549 7.61908
269647 7.70929
269745 7.88913
269794 8.05192
269844 8.31454
269893 8.77446
269942 9.66564
269966 10.4485
269991 11.6558
270016 13.6044
270040 16.7588
270070 22.6308
270100 26.8909
270130 23.3914
270160 17.6098
270190 13.8078
270220 11.6491
270250 10.3919
270280 9.61840
270310 9.11168
270340 8.76474
270400 8.33560
270460 8.08973
270520 7.93605
270640 7.76052
270759 7.66666
270879 7.60979
271119 7.54549
271359 7.51011
271599 7.48723
272078 7.45757
272558 7.43686
273037 7.41955
273996 7.38726
274955 7.35174
275435 7.33081
275914 7.30673
276394 7.27983
276873 7.25912
277113 7.26824
277233 7.29021
277353 7.33964
277472 7.44780
277592 7.69391
277652 7.92847
277712 8.30858
277772 8.94613
277832 10.0407
277990 15.9930
278030 16.6899
278069 16.2474
278148 13.7875
278238 11.4798
278328 10.1558
278418 9.39335
278508 8.92436
278597 8.61551
278687 8.40088
278867 8.12741
279047 7.96332
279227 7.85530
279586 7.72266
279946 7.64442
280305 7.59245
281024 7.52639
281743 7.48457
282462 7.45436
283900 7.41077
286776 7.35055
289652 7.30330
301155 7.14477
312659 6.99364
318411 6.90825
321287 6.84386
322006 6.81709
322725 6.77704
323084 6.74768
323444 6.71067
323623 6.69574
323803 6.71391
323893 6.77628
323938 6.84665
323983 6.97287
324028 7.20934
324073 7.68019
324118 8.71123
324140 9.68364
324163 11.2284
324196 15.3718
324230 21.2224
324247 22.8235
324264 22.3487
324298 18.0040
324324 14.8217
324351 12.6605
324378 11.2461
324404 10.3021
324458 9.17082
324511 8.55119
324564 8.17222
324618 7.92239
324724 7.61878
324831 7.44441
324938 7.33290
325151 7.19971
325577 7.07400
326004 7.01335
327710 6.91898
331123 6.85732
334536 6.83443
337949 6.84700
341362 6.93170
343068 7.03245
344774 7.21376
346481 7.55119
348187 8.22186
349040 8.80470
349894 9.68646
350747 11.0489
351600 13.1516
352794 17.5819
353391 19.8922
353540 20.3630
353689 20.7709
353838 21.1621
353876 21.3059
353913 21.5688
353932 21.8419
353950 22.4161
353960 23.0015
353969 24.0688
353974 24.9743
353978 26.2937
353983 28.3609
353988 31.4732
353994 37.6975
354000 41.8047
354006 37.6627
354013 31.5412
354018 27.9513
354024 25.8014
354029 24.4947
354034 23.6776
354045 22.7395
354056 22.2664
354078 21.8291
354100 21.6462
354139 21.5114
354178 21.4565
354256 21.4008
354413 21.2777
354725 20.7684
355350 18.9181
356600 14.7076
357387 12.7433
358175 11.3335
359749 9.59751
361324 8.64532
362899 8.07257
364473 7.69910
366048 7.43903
369197 7.10104
372347 6.88746
375496 6.73517
381795 6.51723
388093 6.34967
394392 6.19766
397541 6.11995
400690 6.03451
402265 5.98469
403840 5.92333
404627 5.88356
405414 5.83165
406202 5.76934
406399 5.76910
406497 5.78360
406595 5.82228
406694 5.91465
406792 6.13975
406841 6.36540
406891 6.74949
406940 7.43703
406989 8.73435
407045 11.6841
407100 16.5288
407128 18.3492
407156 18.4693
407211 15.1256
407254 12.4878
407296 10.6828
407339 9.50336
407382 8.71691
407467 7.78193
407552 7.27158
407637 6.95994
407723 6.75404
407893 6.50251
408064 6.35635
408234 6.26126
408575 6.14402
408916 6.07287
409257 6.02336
409938 5.95464
410620 5.90436
411302 5.86193
412666 5.78448
414029 5.70436
415393 5.61440
416075 5.57131
416416 5.55754
416756 5.56034
417097 5.60500
417438 5.76359
417609 5.94612
417779 6.27952
417950 6.91240
418120 8.16507
418310 11.0694
418500 15.8905
418595 17.7174
418690 17.9487
418880 15.0195
419032 12.4989
419183 10.7374
419335 9.57114
419487 8.78436
419790 7.83350
420093 7.30207
420397 6.97077
420700 6.74708
421307 6.46579
421914 6.29568
422520 6.18031
423734 6.02942
424947 5.92984
426160 5.85478
428587 5.73936
431014 5.64507
433440 5.55953
435867 5.47740
437080 5.43693
437687 5.41772
437990 5.41215
438142 5.42463
438218 5.48558
438256 5.69298
438275 6.26928
438284 7.45421
438289 9.06667
438294 12.9620
438297 17.5227
438300 20.5822
438303 17.5999
438306 13.0180
438311 8.98447
438316 7.34859
438326 6.20409
438346 5.66308
438386 5.47055
438466 5.41060
438626 5.38962
438945 5.37474
439584 5.35194
440862 5.30764
443418 5.21707
448530 5.02221
458753 4.54472
468977 3.87360
474088 3.42584
476644 3.16480
479200 2.87544
481276 2.61969
483352 2.35515
484390 2.23415
485428 2.15136
486466 2.19194
486985 2.33293
487504 2.65291
488252 3.74119
489000 5.80771
489374 6.69975
489748 6.96455
490496 5.97786
491090 4.95080
491684 4.15810
492278 3.58451
492872 3.16254
494060 2.58632
495248 2.20405
497624 1.70752
500000 1.39349
502802 1.15139
503502 1.09679
504202 1.02854
504552 0.980242
504903 0.912484
505253 0.835812
505340 0.843194
505428 0.917497
505472 1.01987
505515 1.22167
505559 1.62954
505603 2.48212
505627 3.32694
505652 4.60453
505700 8.64446
505724 10.5618
505749 11.2126
505797 9.10804
505848 6.44647
505899 4.80950
505949 3.84674
506000 3.24840
506073 2.71729
506147 2.39306
506220 2.17850
506294 2.02776
506440 1.83263
506587 1.71384
506881 1.58042
507174 1.51110
507762 1.44969
508349 1.43370
510698 1.52984
513046 1.75212
515395 2.07358
517744 2.52603
520093 3.24445
521267 3.82628
522441 4.72956
523616 6.26858
524790 9.07286
527100 17.8439
528255 16.1634
529410 11.9793
530258 9.67693
531105 8.13077
531953 7.10848
532800 6.42208
534727 5.54707
536654 5.13806
538581 4.93563
540509 4.83481
544363 4.76968
548217 4.77477
552071 4.79651
555926 4.80942
559780 4.77530
560743 4.74311
561707 4.68318
562189 4.63365
562671 4.56313
563152 4.48633
563273 4.48561
563393 4.51864
563514 4.63289
563634 4.94597
563767 5.85811
563900 7.74414
563967 8.68888
564033 9.13219
564166 8.58555
564273 7.80452
564380 7.18616
564487 6.74423
564594 6.42971
564808 6.02805
565022 5.79085
565236 5.63749
565450 5.53157
565879 5.39652
566307 5.31566
566735 5.26381
567163 5.23505
567377 5.24827
567484 5.32960
567537 5.59094
567551 5.80660
567564 6.27838
567578 7.63052
567584 9.43287
567591 13.4940
567596 18.4079
567600 21.7310
567605 18.5196
567609 13.4232
567615 9.38392
567622 7.57379
567634 6.19943
567646 5.72195
567659 5.51051
567709 5.26456
567808 5.19241
568007 5.16856
568405 5.15073
569202 5.12611
569998 5.10368
570396 5.08413
570596 5.05688
570695 5.01636
570745 4.97100
570770 4.97869
570782 5.18484
570788 5.71960
570795 8.07090
570800 13.1649
570803 12.3932
570805 10.1714
570812 7.37620
570818 6.40104
570830 5.73969
570855 5.39828
570905 5.24119
571005 5.16907
571205 5.13396
571604 5.11443
572403 5.10066
574000 5.08861
577194 5.07820
580388 5.07372
581985 5.07407
582784 5.08023
583183 5.10216
583283 5.12235
583382 5.17384
583432 5.23763
583482 5.39220
583507 5.57057
583532 5.95462
583545 6.33952
583557 7.03241
583570 8.42261
583576 9.63656
583582 11.4493
583591 15.2186
583600 17.8503
583609 15.3562
583618 11.4670
583625 9.43737
583632 8.14082
583645 6.75298
583659 6.10402
583672 5.75977
583700 5.43047
583727 5.28679
583781 5.16862
583836 5.12326
584054 5.07772
584490 5.06695
585361 5.06430
587104 5.06210
590590 5.05724
594076 5.05302
595819 5.05648
596255 5.06179
596691 5.07664
596908 5.09596
597126 5.14558
597235 5.20720
597344 5.35666
597399 5.52933
597453 5.90379
597480 6.28168
597508 6.96464
597521 7.52714
597535 8.35115
597548 9.58944
597562 11.4553
597581 15.2470
597600 17.8991
597619 15.4025
597638 11.4718
597660 8.63913
597683 7.21492
597705 6.46102
597727 6.02946
597772 5.58598
597816 5.37984
597905 5.20243
597994 5.13157
598173 5.07724
598351 5.05760
598707 5.04352
599063 5.03852
600488 5.03222
603339 5.02599
604764 5.02400
606189 5.02482
606902 5.02867
607614 5.04123
607971 5.05836
608327 5.10330
608505 5.15982
608594 5.21178
608683 5.29854
608772 5.46043
608817 5.59951
608861 5.81563
608906 6.17739
608951 6.83941
608973 7.39207
608995 8.20600
609017 9.44955
609040 11.3398
609070 15.1170
609100 17.7526
609130 15.2901
609161 11.4189
609190 8.96590
609219 7.58294
609249 6.77891
609278 6.28831
609337 5.75485
609396 5.49199
609455 5.34520
609514 5.25560
609632 5.15724
609867 5.07982
610103 5.05194
610574 5.03543
611045 5.03768
611516 5.05503
611751 5.07388
611987 5.10753
612223 5.17466
612340 5.23632
612458 5.33919
612576 5.53130
612635 5.69730
612694 5.95675
612752 6.39654
612811 7.22364
612841 7.93416
612870 9.01417
612900 10.7235
612929 13.4623
613000 21.8887
613036 18.5992
613071 13.3839
613093 11.0878
613115 9.49170
613159 7.61779
613203 6.65823
613247 6.12101
613291 5.79425
613335 5.58366
613423 5.33929
613511 5.20979
613599 5.13381
613774 5.05328
614126 4.99120
614478 4.96580
615181 4.92870
615533 4.88961
615709 4.84934
615797 4.86849
615841 5.11993
615863 5.81757
615874 6.88217
615879 7.91123
615884 9.55161
615900 16.9814
615908 15.8771
615916 12.4944
615925 9.65158
615934 8.09924
615952 6.67537
615970 6.07491
615989 5.76671
616025 5.46496
616061 5.32272
616134 5.18960
616207 5.12784
616353 5.06970
616499 5.04203
616791 5.01506
617083 5.00156
617666 4.98745
618250 4.97961
619417 4.97004
620584 4.96353
622918 4.95399
625252 4.94787
627586 4.94788
628753 4.95318
629920 4.96676
631087 4.99970
631671 5.03277
632254 5.09073
632838 5.20348
633129 5.30380
633421 5.46461
633713 5.74519
634005 6.29586
634150 6.78917
634296 7.57508
634442 8.89310
634588 11.1546
634744 14.8953
634900 17.5471
635056 15.2855
635212 11.6886
635397 9.21435
635582 8.38068
635675 8.49263
635767 9.10744
635860 10.6428
635906 12.0350
635953 14.0765
636100 22.1073
636174 18.8665
636248 13.7757
636297 11.3699
636346 9.73056
636445 7.84293
636543 6.88121
636642 6.33543
636740 5.99555
636839 5.76887
637036 5.49103
637233 5.33073
637430 5.22794
637824 5.10556
638219 5.03625
638613 4.99214
639401 4.93966
640189 4.90947
640978 4.88955
642555 4.86368
644131 4.84606
645708 4.83199
648862 4.80822
661476 4.72337
667783 4.67933
674090 4.63261
680397 4.58318
681973 4.57127
683550 4.56214
684338 4.56175
685127 4.57339
685521 4.59502
685718 4.61748
685915 4.65792
686112 4.73927
686211 4.81373
686309 4.93594
686408 5.15570
686457 5.33658
686507 5.60377
686556 6.02012
686605 6.70482
686654 7.90716
686704 10.0820
686752 13.4776
686800 15.8912
686848 13.7594
686897 10.3336
686946 8.07902
686994 6.82605
687043 6.10671
687092 5.66992
687141 5.38763
687190 5.19669
687288 4.96290
687386 4.83130
687484 4.75002
687680 4.65872
687876 4.61082
688071 4.58214
688463 4.54987
689246 4.51991
690029 4.50332
691596 4.47991
692379 4.47647
692575 4.48397
692771 4.51316
692868 4.55675
692966 4.67445
693015 4.81875
693064 5.14158
693089 5.47041
693113 6.06194
693138 7.24415
693150 8.26684
693162 9.76529
693181 13.1454
693200 15.5461
693219 13.5095
693238 10.2386
693250 8.75083
693262 7.71261
693286 6.46330
693310 5.80481
693334 5.42599
693381 5.03091
693429 4.84169
693525 4.67075
693620 4.59693
693811 4.53356
694002 4.50617
694384 4.48087
694765 4.46795
695529 4.45272
696293 4.44349
697057 4.44085
697820 4.45804
698202 4.49292
