Bi-209(n,tot) ENDF/B-VII.1
Energy(eV) XS(b)
1.00000E-05 11.0004
1.25000E-05 10.8209
1.50000E-05 10.6884
2.00000E-05 10.5024
2.75000E-05 10.3255
3.50000E-05 10.2090
4.25000E-05 10.1249
5.00000E-05 10.0606
6.25000E-05 9.98030
7.50000E-05 9.92104
0.000100000 9.83787
0.000125000 9.78111
0.000150000 9.73921
0.000200000 9.68039
0.000275000 9.62443
0.000350000 9.58760
0.000425000 9.56101
0.000500000 9.54066
0.000625000 9.51527
0.000750000 9.49654
0.00100000 9.47023
0.00125000 9.45228
0.00150000 9.43903
0.00200000 9.42043
0.00275000 9.40274
0.00350000 9.39109
0.00425000 9.38268
0.00500000 9.37624
0.00625000 9.36822
0.00750000 9.36229
0.0100000 9.35397
0.0125000 9.34829
0.0150000 9.34410
0.0200000 9.33821
0.0253000 9.33399
0.0314750 9.33049
0.0376500 9.32789
0.0500000 9.32421
0.0625000 9.32166
0.0750000 9.31978
0.100000 9.31712
0.125000 9.31531
0.150000 9.31396
0.200000 9.31205
0.275000 9.31021
0.350000 9.30898
0.500000 9.30736
0.750000 9.30573
1.00000 9.30466
1.50000 9.30321
2.00000 9.30215
2.75000 9.30089
3.50000 9.29982
5.00000 9.29794
7.50000 9.29513
10.0000 9.29249
15.0000 9.28739
20.0000 9.28236
27.5000 9.27482
35.0000 9.26723
50.0000 9.25177
75.0000 9.22498
100.000 9.19671
150.000 9.13497
200.000 9.06489
275.000 8.93930
350.000 8.77903
425.000 8.56504
500.000 8.26087
537.208 8.05514
574.416 7.79186
611.623 7.44190
648.831 6.95337
667.435 6.62914
686.039 6.22713
704.643 5.72005
723.247 5.07609
732.549 4.69852
741.850 4.29786
751.152 3.92652
760.454 3.76200
765.105 3.91585
769.756 4.44960
774.407 5.78083
779.058 8.91919
781.384 11.8981
783.709 16.6928
786.035 24.7330
788.360 39.0276
790.686 66.6655
791.848 90.5399
793.011 127.055
794.174 185.645
795.337 285.097
796.499 464.269
797.662 797.830
798.831 1352.74
800.000 1789.37
801.169 1513.70
802.338 1000.55
803.110 749.634
803.882 573.173
805.427 362.417
806.971 251.212
808.515 186.641
810.059 145.993
811.604 118.730
814.692 85.3995
817.780 66.3828
820.869 54.3825
823.957 46.2476
827.046 40.4315
833.223 32.7643
839.400 28.0024
845.577 24.7917
851.754 22.4956
864.107 19.4525
876.461 17.5406
888.815 16.2344
901.169 15.2878
925.877 14.0102
950.585 13.1884
975.292 12.6147
1000.00 12.1905
1031.25 11.7882
1062.50 11.4830
1125.00 11.0451
1187.50 10.7388
1250.00 10.5053
1375.00 10.1503
1500.00 9.86024
1625.00 9.57902
1750.00 9.26299
1875.00 8.85470
1937.50 8.58552
2000.00 8.24373
2037.63 7.98782
2075.25 7.68070
2112.88 7.30949
2150.50 6.86892
2169.31 6.63285
2188.13 6.41257
2206.94 6.27204
2225.75 6.39164
2244.56 7.34018
2253.97 8.65078
2263.38 11.3245
2272.78 17.0872
2277.49 22.4058
2282.19 30.9123
2286.89 45.1858
2291.59 70.5922
2296.30 118.874
2298.65 158.640
2301.00 214.515
2305.50 374.138
2310.00 510.703
2314.50 445.849
2319.00 304.539
2323.02 213.464
2327.04 156.132
2331.06 119.781
2335.08 95.7990
2343.12 67.4080
2351.16 51.8975
2359.19 42.4437
2367.23 36.2079
2383.31 28.6470
2399.39 24.3251
2415.46 21.5715
2431.54 19.6807
2447.62 18.3099
2479.77 16.4661
2511.93 15.2898
2544.08 14.4768
2576.24 13.8821
2640.55 13.0706
2704.85 12.5419
2769.16 12.1686
2833.47 11.8897
2962.09 11.4975
3090.71 11.2306
3219.33 11.0335
3251.48 10.9915
3283.64 10.9519
3315.79 10.9148
3331.87 10.8992
3339.91 10.9012
3341.92 10.9106
3343.92 10.9421
3344.93 10.9882
3345.93 11.1206
3346.44 11.3034
3346.69 11.4833
3346.94 11.8062
3347.19 12.4741
3347.32 13.1171
3347.44 14.2270
3347.57 16.4356
3347.63 18.4516
3347.69 21.7108
3347.76 27.6997
3347.79 32.7880
3347.82 40.1886
3347.85 52.3233
3347.88 72.2476
3347.91 108.230
3347.94 176.864
3347.97 277.809
3348.00 343.001
3348.03 278.112
3348.06 177.250
3348.09 105.515
3348.12 68.5262
3348.16 48.9413
3348.19 37.6600
3348.23 30.6638
3348.26 26.0580
3348.33 20.6515
3348.40 17.6478
3348.46 15.8606
3348.60 13.8882
3348.73 12.8863
3348.87 12.3164
3349.14 11.7206
3349.41 11.4307
3349.68 11.2690
3350.22 11.1032
3351.30 10.9800
3352.38 10.9347
3354.55 10.9001
3356.71 10.8861
3365.37 10.8651
3382.68 10.8438
3417.30 10.8080
3451.92 10.7746
3486.54 10.7427
3625.02 10.6269
3901.98 10.4302
4178.94 10.2491
4317.42 10.1528
4352.04 10.1270
4386.66 10.1004
4421.28 10.0735
4438.59 10.0645
4442.92 10.0670
4447.25 10.0814
4449.41 10.1054
4451.57 10.1776
4452.66 10.2793
4453.20 10.3808
4453.74 10.5645
4454.28 10.9492
4454.55 11.3230
4454.82 11.9790
4454.96 12.5165
4455.09 13.3031
4455.23 14.5283
4455.36 16.5864
4455.50 20.4301
4455.56 23.7604
4455.63 28.8380
4455.70 37.3732
4455.77 52.5432
4455.80 65.1238
4455.83 83.4488
4455.87 110.737
4455.90 151.179
4455.95 235.304
4456.00 292.950
4456.05 235.693
4456.10 151.668
4456.13 111.207
4456.17 84.5375
4456.23 53.8379
4456.30 38.1665
4456.37 29.5726
4456.43 24.2804
4456.50 20.9033
4456.63 16.9220
4456.76 14.7824
4456.90 13.5047
4457.16 12.1251
4457.43 11.4309
4457.69 11.0358
4458.22 10.6235
4458.76 10.4237
4459.29 10.3120
4460.35 10.1975
4461.41 10.1424
4462.47 10.1115
4464.60 10.0790
4468.85 10.0527
4473.10 10.0406
4481.60 10.0268
4490.09 10.0167
4524.09 9.98185
4558.08 9.94665
4592.08 9.90897
4660.06 9.82276
4728.05 9.71513
4796.04 9.57211
4864.03 9.36530
4898.02 9.21975
4932.01 9.02605
4966.01 8.75304
4983.00 8.56891
5000.00 8.33581
5013.64 8.09822
5027.29 7.79579
5040.93 7.39837
5054.58 6.85572
5061.40 6.50524
5068.22 6.08350
5075.04 5.57565
5081.86 4.98058
5088.69 4.38142
5092.10 4.20555
5095.51 4.35760
5098.92 5.45937
5100.62 6.88281
5102.33 9.58150
5104.04 14.8217
5104.89 19.1871
5105.74 25.5071
5106.59 34.8548
5107.45 48.9159
5108.30 70.4338
5109.15 103.250
5110.58 191.528
5112.00 277.362
5113.43 256.205
5114.85 184.110
5115.99 138.480
5117.14 107.286
5118.28 86.1655
5119.43 71.5098
5121.71 53.1936
5124.00 42.6187
5126.29 35.9123
5128.57 31.3552
5133.15 25.6474
5137.72 22.2696
5142.30 20.0621
5146.87 18.5156
5151.45 17.3766
5160.60 15.8170
5169.74 14.8033
5178.89 14.0933
5188.04 13.5690
5206.34 12.8471
5224.64 12.3735
5242.94 12.0387
5261.23 11.7891
5297.83 11.4408
5334.43 11.2080
5371.02 11.0404
5407.62 10.9131
5480.81 10.7303
5554.00 10.6028
5700.39 10.4304
5846.77 10.3125
5993.15 10.2216
6139.54 10.1460
6212.73 10.1119
6249.33 10.0956
6267.62 10.0886
6276.77 10.0904
6281.35 10.1141
6282.49 10.1409
6283.64 10.2182
6284.21 10.3249
6284.78 10.6181
6285.07 11.0050
6285.35 12.0068
6285.49 13.2384
6285.57 14.3499
6285.64 16.1198
6285.71 19.2807
6285.78 25.4561
6285.82 31.0928
6285.85 39.8101
6285.89 54.7947
6285.92 79.9402
6285.96 121.791
6286.00 150.214
6286.04 122.119
6286.08 80.3501
6286.11 59.1710
6286.14 45.0588
6286.16 35.8730
6286.19 29.7231
6286.25 22.4211
6286.31 18.4902
6286.37 16.1599
6286.43 14.6734
6286.54 12.9625
6286.66 12.0556
6286.77 11.5186
6287.01 10.9416
6287.47 10.4909
6287.93 10.3213
6288.86 10.1930
6289.79 10.1456
6293.50 10.0960
6300.92 10.0795
6315.76 10.0694
6345.44 10.0558
6404.79 10.0319
6434.47 10.0212
6464.15 10.0134
6478.99 10.0135
6486.41 10.0168
6493.83 10.0255
6501.25 10.0479
6504.96 10.0719
6508.67 10.1173
6510.53 10.1560
6512.38 10.2155
6514.24 10.3129
6516.09 10.4880
6517.02 10.6328
6517.95 10.8493
6518.87 11.1938
6519.80 11.7884
6520.73 12.9479
6521.19 13.9883
6521.66 15.6693
6522.12 18.6447
6522.58 24.5627
6522.81 29.9379
6523.05 38.5862
6523.28 53.2387
6523.51 78.4753
6523.76 119.823
6524.00 147.370
6524.25 119.977
6524.49 78.8999
6524.64 60.8036
6524.80 48.1202
6525.10 33.0116
6525.40 25.1146
6525.71 20.6128
6526.01 17.8235
6526.31 15.9936
6526.92 13.8316
6527.53 12.6530
6528.14 11.9443
6529.35 11.1700
6530.57 10.7790
6531.78 10.5544
6533.00 10.4133
6534.21 10.3189
6536.64 10.2039
6539.07 10.1389
6543.93 10.0712
6548.79 10.0378
6553.65 10.0183
6563.37 9.99655
6573.09 9.98419
6582.81 9.97565
6602.25 9.96331
6641.13 9.94502
6680.01 9.92927
6757.77 9.89996
6835.53 9.87178
7146.57 9.76257
7768.64 9.54104
8390.71 9.29185
8701.75 9.14827
8857.27 9.06966
8935.03 9.02835
8973.91 9.00882
8983.63 9.00601
8993.35 9.00921
8998.21 9.01968
9003.07 9.05668
9005.50 9.11222
9006.71 9.16890
9007.93 9.27312
9009.14 9.49446
9009.75 9.71125
9010.36 10.0953
9010.96 10.8748
9011.27 11.6035
9011.57 12.8308
9011.87 15.1487
9012.03 17.1555
9012.18 20.2594
9012.33 25.4747
9012.48 35.0162
9012.56 42.9225
9012.63 54.5445
9012.71 72.0453
9012.78 98.2748
9012.89 152.021
9013.00 188.465
9013.11 152.753
9013.22 99.1911
9013.28 74.9382
9013.35 58.0637
9013.49 38.3727
9013.63 28.1482
9013.77 22.4013
9013.90 18.8499
9014.04 16.5462
9014.31 13.8265
9014.59 12.3448
9014.86 11.4543
9015.41 10.4850
9015.96 9.99470
9016.51 9.71335
9017.61 9.41779
9018.71 9.27327
9019.81 9.19151
9022.01 9.10642
9026.40 9.04052
9030.80 9.01434
9039.59 8.99120
9048.38 8.97924
9065.96 8.96367
9083.54 8.95134
9118.70 8.92944
9136.28 8.92262
9145.07 8.93831
9147.27 8.96046
9149.46 9.02768
9150.56 9.12283
9151.66 9.38848
9152.21 9.74352
9152.49 10.0836
9152.76 10.6712
9153.04 11.8261
9153.17 12.8635
9153.31 14.5500
9153.45 17.5750
9153.52 20.0502
9153.59 23.6328
9153.65 29.2319
9153.72 38.2011
9153.79 53.8566
9153.86 81.5115
9153.93 125.445
9154.00 154.871
9154.07 126.035
9154.14 82.2514
9154.21 54.8430
9154.28 39.1407
9154.34 29.9550
9154.41 24.3462
9154.48 20.6238
9154.55 18.1138
9154.68 14.9885
9154.82 13.2063
9154.95 12.1129
9155.22 10.8879
9155.49 10.2524
9155.76 9.88329
9156.30 9.49059
9157.39 9.18701
9158.47 9.07278
9160.63 8.98550
9162.79 8.95219
9167.12 8.92522
9171.45 8.91339
9188.75 8.89282
9223.36 8.86829
9292.58 8.82371
9431.02 8.73207
9569.46 8.63383
9638.68 8.58187
9673.29 8.55547
9690.60 8.54313
9699.25 8.54092
9703.58 8.55713
9705.74 8.63574
9706.82 8.93725
9707.09 9.22430
9707.36 9.94436
9707.50 10.7964
9707.63 12.6830
9707.70 14.6223
9707.77 18.1169
9707.84 25.3856
9707.87 31.9344
9707.90 41.6976
9707.95 61.6225
9708.00 75.2594
9708.05 61.9216
9708.10 42.0702
9708.15 28.6582
9708.20 21.4516
9708.30 14.9154
9708.40 12.2564
9708.50 10.9698
9708.70 9.80382
9708.90 9.31252
9709.30 8.91442
9709.70 8.75978
9711.31 8.59550
9714.52 8.54740
9720.95 8.53139
9733.81 8.52965
9740.24 8.54260
9743.46 8.55901
9746.67 8.59183
9749.88 8.66557
9751.49 8.73985
9753.10 8.87420
9754.71 9.15209
9755.51 9.41663
9756.31 9.87110
9757.12 10.7497
9757.52 11.5299
9757.92 12.7748
9758.32 14.9388
9758.72 19.1292
9758.92 22.8101
9759.13 28.5391
9759.33 37.8206
9759.53 52.9447
9759.76 79.8906
9760.00 98.0604
9760.24 80.3443
9760.47 53.5148
9760.71 36.4367
9760.94 26.7863
9761.18 21.1832
9761.41 17.7393
9761.64 15.5019
9761.88 13.9775
9762.35 12.1044
9762.81 11.0467
9763.28 10.3935
9764.22 9.66392
9765.15 9.28642
9766.09 9.06607
9767.96 8.83151
9769.83 8.71488
9771.70 8.64802
9775.45 8.57695
9779.19 8.54077
9782.93 8.51897
9790.42 8.49327
9805.39 8.46570
9820.36 8.44723
9850.30 8.41689
9880.24 8.38882
9940.12 8.33331
10000.0 8.27656
10123.0 8.15343
10246.0 8.01961
10492.0 7.71275
10738.0 7.34069
10984.0 6.88889
11230.0 6.36727
11353.0 6.11823
11476.0 5.96327
11599.0 6.12790
11722.0 7.34334
11783.5 9.02383
11845.0 12.4249
11906.5 19.4695
11937.3 25.5257
11968.0 34.2695
12033.0 64.5339
12098.0 97.4982
12163.0 95.1021
12228.0 72.6498
12278.4 57.8759
12328.8 47.2995
12379.2 39.8708
12429.6 34.5570
12530.4 27.6944
12631.1 23.5812
12731.9 20.8932
12832.7 19.0160
13034.3 16.5787
13235.8 15.0587
13437.4 14.0019
13840.5 12.5464
14243.6 11.4219
14445.2 10.8533
14646.8 10.2030
14848.3 9.37043
14949.1 8.83074
15049.9 8.15991
15150.7 7.31184
15201.1 6.81919
15251.4 6.31675
15301.8 5.93799
15352.2 6.17800
15377.4 7.01607
15402.6 9.06707
15427.8 13.7421
15440.4 17.9185
15453.0 24.0561
15467.3 34.2138
15481.5 48.2234
15510.0 78.3748
15538.5 82.1716
15567.0 66.6637
15596.3 51.9869
15625.5 42.1076
15654.8 35.6053
15684.0 31.1765
15713.3 28.0268
15742.5 25.7000
15801.0 22.5268
15859.5 20.4847
15918.1 19.0691
16035.1 17.2415
16152.1 16.1122
16269.1 15.3425
16503.1 14.3520
16737.1 13.7321
16971.2 13.2995
17205.2 12.9734
17263.7 12.9030
17322.2 12.8361
17351.5 12.8045
17380.7 12.7767
17395.3 12.7685
17410.0 12.7780
17417.3 12.8085
17420.9 12.8443
17424.6 12.9140
17428.3 13.0682
17430.1 13.2217
17431.9 13.4937
17433.7 14.0458
17434.7 14.5611
17435.6 15.4123
17436.5 16.9994
17436.9 18.3439
17437.4 20.3370
17437.9 23.6091
17438.3 29.1176
17438.8 39.6208
17439.2 59.7629
17439.6 89.0934
17440.0 108.503
17440.4 89.3473
17440.8 61.0551
17441.2 43.1379
17441.5 33.0633
17441.9 27.0640
17442.3 23.3043
17443.0 19.1162
17443.8 16.9894
17444.5 15.7719
17445.2 15.0123
17446.7 14.1536
17448.2 13.7041
17449.7 13.4389
17452.6 13.1526
17455.6 13.0077
17458.6 12.9231
17464.5 12.8309
17470.4 12.7821
17476.3 12.7514
17488.2 12.7132
17511.9 12.6683
17535.5 12.6361
17582.9 12.5811
17630.3 12.5285
17677.6 12.4719
17725.0 12.4007
17748.7 12.3491
17760.5 12.3135
17772.4 12.2650
17784.2 12.1906
17790.1 12.1343
17796.1 12.0527
17802.0 11.9217
17804.9 11.8199
17807.9 11.6714
17810.9 11.4328
17812.3 11.2493
17813.8 10.9855
17815.3 10.5744
17816.0 10.2698
17816.8 9.85074
17817.5 9.24485
17818.3 8.33094
17819.0 7.21716
17819.2 7.26846
17819.4 8.12368
17819.5 9.46091
17819.6 11.8035
17819.7 16.1707
17819.7 24.5663
17819.8 34.4664
17819.9 46.5708
17820.0 74.3695
17820.1 76.8539
17820.3 62.1177
17820.4 48.3753
17820.5 39.4520
17820.7 33.2385
17820.8 29.3681
17820.9 26.4346
17821.1 24.4413
17821.3 21.7157
17821.6 19.9054
17821.9 18.7063
17822.4 17.1410
17822.9 16.1764
17823.5 15.5454
17824.5 14.7560
17825.6 14.2798
17826.6 13.9666
17828.8 13.5746
17830.9 13.3403
17833.0 13.1842
17837.3 12.9892
17841.5 12.8711
17845.8 12.7916
17854.3 12.6903
17862.8 12.6273
17871.3 12.5834
17888.4 12.5243
17905.4 12.4843
17922.4 12.4539
17956.5 12.4078
18024.6 12.3407
18092.7 12.2874
18365.2 12.1195
18910.1 11.8676
19455.1 11.6724
20000.0 11.5113
20214.9 11.4544
20429.8 11.4004
20644.6 11.3487
20752.1 11.3240
20805.8 11.3136
20832.7 11.3172
20839.4 11.3273
20846.1 11.3614
20849.4 11.4123
20852.8 11.5578
20854.5 11.7548
20855.3 11.9438
20856.2 12.2712
20857.0 12.9081
20857.4 13.4767
20857.8 14.3906
20858.3 15.9840
20858.7 19.0877
20858.9 21.8278
20859.1 26.1113
20859.3 33.0883
20859.5 44.5313
20859.8 64.4412
20860.0 78.6906
20860.3 65.1849
20860.5 45.4520
20860.7 34.8304
20860.9 28.2641
20861.0 23.9413
20861.2 21.0169
20861.6 17.4323
20862.0 15.5425
20862.3 14.3828
20862.7 13.6593
20863.4 12.8148
20864.1 12.3552
20864.9 12.0840
20866.3 11.7863
20869.2 11.5479
20872.1 11.4557
20877.9 11.3833
20883.7 11.3553
20895.3 11.3334
20906.9 11.3256
20930.2 11.3245
20953.4 11.3382
20965.0 11.3539
20976.6 11.3806
20988.2 11.4273
20999.8 11.5153
21005.6 11.5898
21011.4 11.7023
21017.2 11.8826
21023.0 12.1939
21028.9 12.7962
21031.8 13.3280
21034.7 14.1730
21037.6 15.6270
21040.5 18.3741
21041.9 20.7287
21043.4 24.3016
21044.8 29.8996
21046.3 38.7241
21048.1 55.6190
21050.0 67.2152
21051.9 56.3970
21053.7 39.7040
21055.8 28.2867
21057.8 22.1383
21059.8 18.6967
21061.8 16.6337
21063.8 15.3160
21065.9 14.4286
21069.9 13.3516
21073.9 12.7464
21078.0 12.3746
21086.0 11.9580
21094.1 11.7413
21102.2 11.6135
21110.2 11.5312
21118.3 11.4747
21134.5 11.4033
21150.6 11.3606
21166.7 11.3322
21182.9 11.3119
21215.2 11.2841
21247.5 11.2651
21312.0 11.2385
21376.6 11.2186
21441.2 11.2016
21570.3 11.1716
21828.6 11.1183
22086.8 11.0689
22603.4 10.9751
22861.6 10.9294
22990.8 10.9063
23055.3 10.8940
23087.6 10.8866
23103.7 10.8816
23111.8 10.8806
23115.9 10.9000
23117.9 11.0087
23118.9 11.4523
23119.1 11.8692
23119.4 12.8882
23119.5 14.1077
23119.6 16.4424
23119.8 22.9196
23119.8 29.7204
23119.9 43.2923
23119.9 62.4031
23120.0 76.7594
23120.1 63.4932
23120.1 44.6315
23120.2 34.3444
23120.2 26.9542
23120.3 19.4773
23120.4 16.1578
23120.5 14.5726
23120.7 12.9304
23120.9 12.1936
23121.3 11.5658
23121.6 11.3100
23123.2 11.0231
23126.2 10.9322
23132.3 10.9014
23144.5 10.8885
23168.9 10.8800
23217.6 10.8696
23315.1 10.8515
23510.0 10.8161
23705.0 10.7778
23802.5 10.7519
23851.2 10.7255
23863.4 10.7115
23875.6 10.6856
23881.7 10.6609
23887.8 10.6129
23890.8 10.5657
23893.9 10.4731
23895.4 10.3815
23896.9 10.2035
23897.7 10.0310
23898.4 9.70161
23899.2 8.82916
23899.6 7.52337
23899.8 6.13218
23899.9 5.74043
23899.9 7.62792
23899.9 16.6253
23900.0 31.0601
23900.0 53.8117
23900.0 57.2258
23900.1 47.9391
23900.1 34.2970
23900.1 27.4223
23900.2 20.8165
23900.4 16.1627
23900.6 14.3362
23900.7 13.4632
23901.0 12.5517
23901.4 12.0974
23902.0 11.6452
23902.7 11.4202
23904.0 11.1961
23905.3 11.0850
23908.0 10.9730
23910.6 10.9171
23915.9 10.8606
23921.1 10.8320
23931.7 10.8025
23942.2 10.7868
23963.3 10.7692
23984.3 10.7586
24068.6 10.7332
24237.1 10.6979
24405.6 10.6657
24574.1 10.6347
24742.6 10.6066
24826.8 10.5962
24911.1 10.5927
24953.2 10.5966
24995.4 10.6083
25037.5 10.6347
25079.6 10.6920
25100.7 10.7441
25121.7 10.8260
25142.8 10.9615
25163.9 11.2031
25184.9 11.6853
25195.5 12.1228
25206.0 12.8344
25216.5 14.0922
25227.0 16.5840
25232.3 18.8212
25237.6 22.3642
25242.8 28.2586
25248.1 38.2018
25254.1 55.5210
25260.0 67.5663
25266.0 56.5739
25271.9 39.5341
25278.8 27.3440
25285.6 21.0410
25292.5 17.6140
25299.3 15.5984
25306.2 14.3271
25313.1 13.4780
25326.8 12.4531
25340.5 11.8811
25354.2 11.5289
25381.6 11.1332
25409.1 10.9244
25436.5 10.7986
25464.0 10.7152
25491.4 10.6558
25546.3 10.5757
25601.1 10.5220
25656.0 10.4812
25710.9 10.4473
25820.6 10.3893
25930.3 10.3355
26149.8 10.2198
26369.3 10.0648
26479.0 9.95504
26588.8 9.80290
26643.6 9.70027
26698.5 9.56912
26753.4 9.39414
26808.2 9.14686
26835.7 8.97971
26863.1 8.76793
26890.5 8.49062
26918.0 8.11302
26945.4 7.57353
26959.1 7.21275
26972.8 6.77227
26986.6 6.25400
26993.4 5.98954
27000.3 5.77314
27007.1 5.72242
27014.0 6.15476
27020.9 7.96551
27024.3 10.0692
27027.7 13.6938
27030.8 18.9294
27033.9 26.4419
27040.0 43.9589
27046.2 47.9988
27052.3 40.5950
27059.0 32.5390
27065.7 27.0999
27072.4 23.5307
27079.1 21.1093
27085.8 19.3874
27092.5 18.1172
27105.9 16.3830
27119.4 15.2667
27132.8 14.4930
27159.6 13.4961
27186.4 12.8838
27213.2 12.4701
27240.0 12.1719
27266.9 11.9465
27320.5 11.6276
27374.1 11.4117
27427.8 11.2549
27481.4 11.1350
27588.7 10.9614
27696.0 10.8393
27910.5 10.6716
28125.1 10.5536
28339.7 10.4589
28446.9 10.4162
28554.2 10.3749
28661.5 10.3340
28715.1 10.3165
28728.6 10.3171
28742.0 10.3324
28748.7 10.3616
28755.4 10.4525
28758.7 10.5785
28760.4 10.7000
28762.1 10.9077
28763.8 11.3073
28764.6 11.6566
28765.4 12.1962
28766.3 13.1098
28767.1 14.7822
28767.5 16.1650
28767.9 18.1904
28768.4 21.2240
28768.8 25.6339
28769.4 35.3219
28770.0 41.9578
28770.6 35.8713
28771.2 26.5265
28771.7 21.5579
28772.2 18.3995
28772.6 16.2951
28773.1 14.9133
28774.0 13.2438
28775.0 12.3382
28775.9 11.7969
28776.8 11.4486
28778.7 11.0441
28780.5 10.8243
28782.4 10.6917
28786.1 10.5456
28793.5 10.4246
28801.0 10.3745
28815.8 10.3306
28830.7 10.3095
28860.4 10.2852
28890.1 10.2683
28949.6 10.2417
28964.4 10.2394
28979.3 10.2507
28986.7 10.2775
28994.1 10.3680
28997.9 10.5005
28999.7 10.6322
29001.6 10.8646
29003.4 11.3308
29004.4 11.7560
29005.3 12.4517
29006.2 13.6924
29007.1 16.1841
29007.6 18.4804
29008.1 22.0946
29008.5 28.1666
29009.0 38.5718
29009.5 56.4336
29010.0 68.5727
