U-235(n,g) ENDF/B-VII.1
Energy(eV) XS(b)
1.00000E-05 5961.75
1.25000E-05 5332.30
1.50000E-05 4867.65
2.00000E-05 4215.43
2.41438E-05 3836.61
2.82875E-05 3544.43
3.65750E-05 3117.01
5.00000E-05 2665.77
6.25000E-05 2384.23
7.50000E-05 2176.39
0.000100000 1884.63
0.000125000 1685.50
0.000150000 1538.50
0.000200000 1332.12
0.000275000 1135.70
0.000350000 1006.39
0.000425000 913.006
0.000500000 841.491
0.000625000 752.261
0.000750000 686.351
0.00100000 593.744
0.00125000 530.452
0.00150000 483.657
0.00200000 417.806
0.00275000 354.847
0.00350000 313.134
0.00425000 282.798
0.00500000 259.392
0.00625000 229.890
0.00750000 207.815
0.0100000 176.272
0.0125000 154.329
0.0150000 137.953
0.0175000 125.187
0.0200000 114.932
0.0207590 112.204
0.0230295 104.910
0.0253000 98.6864
0.0314750 85.5999
0.0376500 76.2069
0.0438250 69.1049
0.0500000 63.5247
0.0625000 55.1998
0.0750000 49.3633
0.0875000 45.0809
0.100000 41.8681
0.122915 37.9247
0.145830 35.8527
0.168745 35.3400
0.191660 36.3425
0.200000 37.0911
0.218448 39.4440
0.236895 42.5033
0.255343 45.4509
0.273790 46.8089
0.284058 46.3247
0.294325 44.8358
0.314860 39.5107
0.355930 27.1324
0.373939 22.9910
0.391948 19.7566
0.409956 17.2546
0.427965 15.3082
0.500000 10.7312
0.625000 7.59660
0.750000 6.49243
0.875000 6.72160
0.937500 7.71524
1.00000 10.2013
1.05070 14.8401
1.13420 30.9064
1.15510 32.0532
1.17600 29.4552
1.21780 19.8058
1.24790 14.4717
1.27800 11.3830
1.30600 9.81373
1.33400 7.49549
1.37563 5.61230
1.41725 4.64207
1.50050 3.62192
1.66700 2.90146
1.75025 2.90530
1.83350 3.31867
1.87513 3.92136
1.91675 5.30813
1.93756 6.72451
1.95838 9.30963
1.97919 14.6576
1.98959 19.6335
2.00000 27.7251
2.01080 41.8507
2.03490 86.6413
2.04690 72.0875
2.05890 45.7876
2.06801 31.8486
2.07713 22.9060
2.08624 17.1682
2.09535 13.3764
2.11358 8.93847
2.13180 6.58486
2.16825 4.32872
2.20470 3.32849
2.27760 2.49489
2.35050 2.17974
2.49630 2.05032
2.64210 2.48538
2.69865 2.99732
2.72693 3.34444
2.75520 3.66996
2.81175 3.80857
2.86830 3.53075
2.91940 3.56713
2.97050 4.09734
3.02160 5.48076
3.04715 6.79742
3.07270 8.88988
3.14290 20.0117
3.16045 21.0996
3.17800 19.6006
3.21310 13.3796
3.23537 10.2420
3.25764 8.15173
3.30218 6.01825
3.34671 5.35982
3.39125 5.58897
3.43579 6.74113
3.48033 9.51995
3.50259 12.1439
3.52486 16.4095
3.54713 23.6972
3.56940 36.6005
3.59250 58.8329
3.61560 79.3108
3.62718 78.2761
3.63875 68.7515
3.66190 43.8090
3.67671 31.9430
3.69153 23.7612
3.70634 18.1945
3.72115 14.3493
3.75078 9.65496
3.78040 7.08116
3.82500 5.03038
3.86960 3.97126
3.91420 3.25634
3.95880 2.72505
4.06746 2.08107
4.17613 1.86820
4.39345 2.03819
4.50211 2.53171
4.55644 3.03167
4.61078 3.91319
4.66511 5.66374
4.69227 7.26570
4.71944 9.92086
4.74660 14.7915
4.76019 18.9042
4.77377 25.1694
4.78735 35.3302
4.80094 53.1660
4.81452 87.6228
4.82131 117.006
4.82810 159.868
4.84970 343.798
4.85513 330.239
4.86055 282.844
4.87140 175.136
4.87944 120.384
4.88748 85.2838
4.89551 62.7131
4.90355 47.7584
4.91963 30.2015
4.93570 20.8665
4.95178 15.3863
4.96785 11.9207
5.00000 7.97999
5.03100 5.98774
5.06200 4.82066
5.12400 3.62416
5.19470 3.07935
5.26540 2.92284
5.40680 3.09419
5.54815 3.24526
5.68950 3.39429
5.77970 3.77658
5.86990 4.59016
5.96010 6.22439
6.05030 9.78578
6.10745 14.2897
6.16460 21.3624
6.22175 30.4405
6.25033 38.2466
6.27890 53.4121
6.29948 74.3395
6.32005 113.988
6.33034 147.588
6.34063 197.855
6.35091 275.186
6.36120 394.643
6.37500 631.377
6.38880 797.933
6.40260 644.831
6.41640 403.768
6.42413 306.084
6.43185 235.266
6.44730 147.354
6.46275 99.4078
6.47820 71.2324
6.49365 53.5184
6.50910 41.7458
6.54000 27.6645
6.57090 19.9533
6.60180 15.3275
6.66360 10.4325
6.72540 8.28713
6.78720 7.60903
6.84900 8.23279
6.91080 11.0628
6.94985 15.5970
6.96938 19.6924
6.98890 26.1774
7.00253 33.1267
7.01615 43.4712
7.02978 59.4484
7.04340 84.6393
7.06690 156.343
7.07940 187.523
7.08840 185.820
7.09740 163.506
7.11540 104.021
7.12975 70.0831
7.14410 48.8443
7.15845 35.5888
7.17280 27.0289
7.20150 17.2518
7.23020 12.1892
7.25890 9.26549
7.28760 7.43661
7.34500 5.38140
7.40240 4.33770
7.45980 3.76903
7.57460 3.38764
7.61685 3.45934
7.65910 3.57265
7.70135 3.51031
7.74360 3.36259
7.86158 3.39815
7.97955 3.88329
8.09753 4.79815
8.21550 6.42375
8.27449 7.70471
8.33348 9.51935
8.39246 12.1977
8.45145 16.3718
8.51044 23.3701
8.56943 36.3329
8.59892 47.2932
8.62841 63.8425
8.65791 89.8980
8.68740 132.148
8.72045 208.399
8.75350 297.547
8.76040 309.416
8.77863 314.674
8.79685 282.606
8.83330 182.781
8.85645 133.709
8.87960 99.9200
8.92590 61.6841
8.96900 43.8394
9.01210 33.4260
9.05520 26.9738
9.09830 23.4656
9.15580 23.8580
9.18455 27.6463
9.21330 36.2336
9.27080 68.7788
9.28520 68.7427
9.29960 61.5894
9.32840 41.2662
9.35786 26.8332
9.38733 18.8039
9.41679 14.2225
9.44625 11.4317
9.50518 8.42974
9.56410 7.10075
9.63020 6.74467
9.69630 7.16161
9.76245 6.87940
9.82860 5.54189
9.91430 4.58246
10.0000 5.08007
10.0295 5.85737
10.0590 7.36671
10.0885 10.4410
10.1033 13.1406
10.1180 17.1854
10.1405 26.9452
10.1630 37.1281
10.1743 37.4939
10.1855 33.6508
10.2080 22.1824
10.2279 14.8686
10.2479 10.5331
10.2678 7.95886
10.2878 6.35945
10.3276 4.59909
10.3675 3.72252
10.4473 2.94545
10.5270 2.67102
10.7110 2.71020
10.8950 2.90921
11.0814 3.70696
11.1746 4.58495
11.2678 6.13980
11.3609 9.24481
11.4075 12.1281
11.4541 17.0201
11.5007 26.3967
11.5240 34.7246
11.5473 48.1227
11.5706 71.6858
11.5939 118.525
11.6056 161.042
11.6172 229.699
11.6289 347.124
11.6405 554.819
11.6465 713.790
11.6526 902.131
11.6646 1175.71
11.6767 969.449
11.6887 605.896
11.6960 446.418
11.7034 334.771
11.7180 202.203
11.7327 133.429
11.7474 94.4420
11.7620 70.5478
11.7767 55.0082
11.8060 36.8802
11.8354 27.3027
11.8647 21.8079
11.9234 16.6004
11.9820 15.2254
12.0407 16.2491
12.0993 19.8191
12.1580 27.5869
12.2155 44.2225
12.2443 60.0207
12.2730 86.6649
12.2928 116.969
12.3125 166.343
12.3323 253.098
12.3421 321.490
12.3520 415.924
12.3610 531.799
12.3700 678.389
12.3880 978.267
12.3900 997.941
12.3948 1022.03
12.3995 1011.14
12.4090 898.772
12.4280 565.200
12.4390 417.495
12.4499 312.516
12.4719 187.410
12.4938 122.620
12.5158 86.0048
12.5377 63.6226
12.5596 49.0747
12.6035 32.1232
12.6474 23.2041
12.6913 18.2547
12.7351 15.7785
12.7790 15.5083
12.8530 19.1712
12.8900 16.9590
12.9270 12.6216
12.9575 10.0125
12.9880 8.34198
13.0490 6.60585
13.1100 5.99689
13.1710 6.20795
13.2670 8.44912
13.2750 8.64301
13.3013 8.95811
13.3275 8.67284
13.3800 7.30653
13.4345 6.37778
13.4890 6.12869
13.5980 6.68433
13.8450 8.05583
13.9290 8.10143
14.0160 8.00529
14.1030 7.43469
14.2190 6.02988
14.2770 5.60878
14.3350 5.78927
14.3600 6.18137
14.3997 7.53048
14.4394 10.7801
14.4592 14.0502
14.4790 19.7749
14.4989 30.6002
14.5187 52.1953
14.5349 81.2540
14.5510 102.935
14.5531 103.045
14.5617 95.6626
14.5703 80.2244
14.5789 63.6579
14.5875 49.6657
14.5987 36.2709
14.6099 27.2392
14.6324 16.8857
14.6548 11.6591
14.6773 8.73484
14.7221 5.80256
14.7670 4.47001
14.8470 3.49049
14.9270 3.25084
15.0070 3.44679
15.0870 4.13763
15.1655 5.69707
15.2048 7.13649
15.2440 9.47886
15.2743 12.4703
15.3045 17.5640
15.3348 27.0330
15.3650 45.6026
15.4010 81.4450
15.4170 88.9073
15.4430 71.3769
15.4690 45.2192
15.4874 32.4248
15.5059 23.9678
15.5243 18.3767
15.5427 14.6003
15.5796 10.1092
15.6165 7.74999
15.6534 6.45251
15.6902 5.76106
15.7640 5.50821
15.8377 6.62941
15.8746 7.99513
15.9114 10.4177
15.9483 14.9916
15.9667 18.8835
15.9852 24.8104
16.0036 34.3943
16.0220 51.0861
16.0405 82.9460
16.0497 109.834
16.0589 148.714
16.0738 242.531
16.0886 323.668
16.0960 315.584
16.1035 274.323
16.1183 172.904
16.1326 107.543
16.1469 70.5154
16.1611 49.1406
16.1754 36.1072
16.1897 27.7078
16.2039 22.0417
16.2325 15.1844
16.2610 11.4234
16.2896 9.21172
16.3467 7.09014
16.4037 6.65294
16.4323 6.93481
16.4608 7.61253
16.4894 8.83468
16.5179 10.8884
16.5465 14.3014
16.5750 19.9419
16.6460 40.9741
16.6635 40.1539
16.6810 35.3481
16.7160 23.0957
16.7387 17.1559
16.7614 13.0305
16.8068 8.23524
16.8521 5.80553
16.8975 4.44972
16.9883 3.10419
17.0790 2.51425
17.2605 2.14353
17.4420 2.34534
17.5440 2.84356
17.6450 3.41370
17.7155 4.08631
17.7860 5.44552
17.8213 6.59127
17.8565 8.28823
17.8918 10.8782
17.9270 14.8876
18.0200 30.8180
18.0557 31.0857
18.1020 28.0373
18.1053 27.6224
18.1130 26.3864
18.1340 21.6175
18.1549 16.8997
18.1970 11.0741
18.2392 8.27609
18.3235 5.99769
18.4077 5.36133
18.4920 5.42522
18.5895 6.08933
18.6870 7.47477
18.7845 10.1517
18.8333 12.5219
18.8820 16.6499
18.9241 24.7324
18.9451 34.5609
18.9556 43.6991
18.9661 58.4599
18.9779 83.3099
18.9897 101.145
19.0015 87.4871
19.0132 65.4920
19.0247 52.4700
19.0361 46.2447
19.0590 43.8756
19.1048 56.5029
19.1277 69.8907
19.1506 90.5457
19.1735 123.866
19.1964 181.800
19.2124 245.603
19.2284 316.178
19.2392 354.845
19.2603 446.910
19.2965 641.680
19.3108 630.559
19.3251 552.494
19.3537 349.947
19.3739 245.229
19.3941 175.701
19.4143 129.978
19.4345 99.2358
19.4749 62.6330
19.5153 42.9374
19.5557 31.2822
19.5961 23.8738
19.6769 15.4091
19.7576 11.0065
19.8384 8.50776
19.9192 7.07219
20.0000 6.42299
20.0736 6.83765
20.1103 8.09708
20.1287 9.49607
20.1471 11.9613
20.1720 17.1418
20.1843 18.6017
20.2029 16.9192
20.2215 14.2878
20.2360 13.0165
20.2680 10.7969
20.2840 9.62511
20.3000 8.62100
20.3389 7.16784
20.3779 6.70785
20.4557 7.47458
20.4946 8.82956
20.5336 11.6539
20.5530 14.2764
20.5725 18.6386
20.5919 26.5132
20.6114 41.6632
20.6283 63.6503
20.6451 81.4793
20.6620 69.7316
20.6704 57.9183
20.6788 47.2491
20.6873 38.7590
20.6958 32.4767
20.7129 24.6312
20.7299 20.5680
20.7469 18.5563
20.7810 17.7585
20.8150 19.5524
20.8735 28.3115
20.9028 36.9478
20.9320 51.2793
20.9563 71.4781
20.9805 107.169
21.0048 176.565
21.0169 236.008
21.0290 322.840
21.0390 420.622
21.0490 537.744
21.0668 692.418
21.0763 671.706
21.0857 582.265
21.1046 366.856
21.1186 253.909
21.1325 180.407
21.1464 132.682
21.1604 100.899
21.1883 63.3811
21.2162 43.3349
21.2440 31.5085
21.2719 23.9940
21.3277 15.3789
21.3835 10.8279
21.4393 8.14144
21.5508 5.26873
21.6624 3.85999
21.7739 3.08589
21.9970 2.39234
22.2201 2.30121
22.4432 2.81030
22.5548 3.54653
22.6663 5.25462
22.7221 7.10241
22.7779 10.8617
22.8057 14.4293
22.8336 20.5692
22.8615 32.2866
22.8755 42.3127
22.8894 57.2470
22.9112 95.1817
22.9329 139.963
22.9438 145.032
22.9547 131.455
22.9764 84.7013
22.9893 62.9653
23.0022 47.7699
23.0280 30.2407
23.0538 21.6935
23.0796 17.2966
23.1311 14.0768
23.1827 14.7413
23.2343 18.9841
23.2601 23.3139
23.2859 30.4899
23.3116 43.2311
23.3374 68.6230
23.3503 91.7088
23.3632 129.064
23.3761 193.269
23.3890 307.673
23.3955 392.822
23.4020 493.151
23.4150 637.219
23.4280 529.091
23.4410 337.439
23.4535 215.993
23.4660 147.338
23.4816 101.096
23.4973 76.7103
23.5285 56.0355
23.5598 50.9837
23.5910 51.1910
23.6225 50.5115
23.6540 45.6128
23.7170 29.9109
23.7771 19.2578
23.8372 13.5600
23.8973 10.7284
23.9574 9.69367
24.0175 10.3344
24.0776 13.8272
24.1077 17.9827
24.1377 25.9943
24.1527 32.8277
24.1678 43.0851
24.1828 58.9904
24.1903 70.0950
24.1978 83.9997
24.2079 107.798
24.2180 136.931
24.2381 185.096
24.2482 181.853
24.2583 158.936
24.2784 100.805
24.2967 64.7448
24.3149 43.6361
24.3332 31.1267
24.3515 23.3372
24.3880 14.7223
24.4246 10.3739
24.4611 7.88820
24.4976 6.33668
24.5707 4.58406
24.6438 3.68050
24.7169 3.18051
24.8630 2.86738
24.9600 3.17171
25.0580 3.05721
25.1555 3.11527
25.2530 3.65822
25.2540 3.66665
25.2561 3.68430
25.2581 3.70216
25.2623 3.73878
25.2705 3.81580
25.2870 3.98530
25.3200 4.38931
25.3860 5.35801
25.5180 6.06021
25.5830 6.36192
25.6653 6.76222
25.7475 6.71079
25.9120 5.39202
25.9895 4.86409
26.0283 4.71699
26.0670 4.66501
26.1058 4.72117
26.1445 4.90321
26.1833 5.23794
26.2220 5.76772
26.2820 7.14984
26.3420 9.72838
26.3970 14.1352
26.4520 20.4751
26.4640 21.5130
26.4885 22.1741
26.5130 20.6036
26.5620 14.5319
26.5980 10.8030
26.6340 8.25614
26.7060 5.41509
26.8067 3.73441
26.9075 3.19447
26.9578 3.25812
27.0082 3.69453
27.0585 5.04559
27.0837 6.60366
27.1089 9.50610
27.1577 17.4668
27.1822 14.3465
27.2066 9.57052
27.2348 6.31171
27.2630 4.73587
27.2912 3.95984
27.3195 3.58050
27.3759 3.41473
27.4323 3.73111
27.4887 4.52247
27.5452 6.07026
27.6016 9.18970
27.6298 11.9577
27.6580 16.2779
27.6805 21.5738
27.7030 29.4807
27.7255 41.0375
27.7480 55.9904
27.7705 68.9944
27.7930 69.9577
27.8380 43.2449
27.8708 27.2931
27.9036 18.1839
27.9363 13.0941
27.9691 10.3112
28.0186 8.94746
28.0433 8.20978
28.0680 7.04238
28.0830 6.46694
28.1338 5.46330
28.1846 5.42306
28.2354 6.28233
28.2862 8.61143
28.3470 14.3416
28.3705 16.2575
28.3916 16.4296
28.4127 14.9551
28.4548 10.3892
28.4742 8.68848
28.4936 7.39690
28.5324 5.79070
28.5712 5.03819
28.6100 4.75139
28.6110 4.74741
28.6134 4.73814
28.6159 4.72941
28.6208 4.71331
28.6305 4.68442
28.6500 4.62419
28.6890 4.39120
28.7670 3.36386
28.8270 2.58129
28.9230 1.86825
29.0000 1.62413
29.0865 1.49711
29.1730 1.46211
29.2833 1.59334
29.3936 2.13526
29.4487 2.83343
29.4763 3.45186
29.5038 4.43259
29.5314 6.10983
29.5590 9.29299
29.5728 12.0421
29.5865 16.2619
29.6003 23.0264
29.6141 34.1556
29.6307 55.7752
29.6473 75.7080
29.6556 74.6060
29.6639 65.3319
29.6805 41.4171
29.6938 27.8907
29.7071 19.4649
29.7204 14.2195
29.7337 10.8388
29.7470 8.57004
29.7602 6.98922
29.7868 5.00814
29.8134 3.87455
29.8400 3.17473
29.8931 2.41049
29.9994 1.87701
30.1058 1.83134
30.2121 2.07242
30.3184 2.72872
30.3715 3.39104
30.4247 4.58427
30.4779 7.07487
30.5044 9.43831
30.5310 13.2696
30.5613 19.9070
30.5915 25.1326
30.6218 22.2210
30.6520 17.0162
30.6743 14.9425
30.6966 14.4910
30.7189 15.5458
30.7412 18.3308
30.7635 23.6764
30.7858 33.6411
30.8081 53.2648
30.8193 70.1106
30.8304 94.9357
30.8482 157.067
30.8660 219.930
30.8749 220.055
30.8838 194.165
30.9016 122.376
30.9188 75.0786
30.9360 48.6756
30.9532 33.6667
30.9703 24.6184
30.9875 18.8340
31.0047 14.9454
31.0219 12.2203
31.0391 10.2441
31.0734 7.64417
31.1078 6.07616
31.1421 5.07249
31.1765 4.40519
31.2452 3.64688
31.3140 3.32676
31.3827 3.27818
31.4514 3.45707
31.5500 4.14559
31.6486 5.31272
31.7294 7.28474
31.7698 8.96306
31.8102 11.4756
31.8505 15.4364
31.8909 22.1354
31.9313 34.5858
31.9515 45.0434
31.9717 60.5642
32.0046 104.560
32.0211 138.882
32.0375 180.623
32.0582 238.321
32.0934 325.448
32.1032 301.118
32.1285 173.800
32.1414 126.600
32.1543 94.6861
32.1802 57.8967
32.2060 38.9807
32.2318 28.1281
32.2577 21.3585
32.2835 16.8632
32.3351 11.4699
32.3868 8.49879
32.4384 6.70965
32.5418 4.81256
32.6451 3.97404
32.7484 3.66332
32.8517 3.71314
32.9550 4.12356
33.0393 4.83340
33.1235 6.13865
33.2078 8.69067
33.2499 10.9479
33.2920 14.5468
33.3396 21.9410
33.3634 28.3232
33.3872 38.2800
33.4110 54.9979
33.4348 85.9580
33.4467 112.053
33.4586 151.222
33.4705 212.188
33.4824 308.981
33.4901 398.529
33.4979 508.177
33.5133 691.817
33.5210 681.777
33.5288 596.580
33.5442 376.558
33.5586 237.042
33.5729 156.835
33.5873 110.311
33.6016 82.1237
33.6280 54.3890
33.6500 42.4294
33.6985 24.9626
33.7375 17.6380
33.7765 13.8108
33.8546 10.4776
33.9326 9.76238
34.0107 10.7551
34.0887 14.0254
34.1277 17.2861
34.1667 22.8012
34.2058 33.0132
34.2253 41.6833
34.2448 54.9629
34.2643 76.6640
34.2838 115.165
34.2936 146.159
34.3033 190.433
34.3131 254.812
34.3228 347.770
34.3304 442.594
34.3380 548.483
34.3531 666.998
34.3607 619.276
34.3683 522.246
34.3835 327.576
34.3870 293.065
34.3961 221.693
34.4053 171.707
34.4235 111.149
34.4418 78.8206
34.4600 60.2048
34.4965 41.4946
34.5330 33.2013
34.6065 26.6229
34.6800 27.0356
34.7289 31.8534
34.7778 42.4113
34.8251 60.7564
34.8724 81.7878
34.8961 85.7093
34.9197 83.2371
34.9670 74.8070
34.9870 75.2347
35.0176 83.5644
35.0482 104.034
35.0788 142.696
35.0941 171.900
35.1094 209.342
35.1110 213.743
35.1148 224.508
35.1186 235.711
35.1262 259.083
35.1413 305.839
35.1716 345.134
35.2027 268.493
35.2338 175.567
35.2360 170.220
35.2419 156.721
35.2478 144.488
35.2597 123.397
35.2833 92.0380
35.3306 55.9713
35.3779 37.4916
35.4252 27.0846
35.4547 22.8402
35.4842 19.1736
35.5814 12.1028
35.6786 8.51582
35.7758 6.43484
35.8730 5.14905
36.0620 3.75582
36.1560 3.14795
36.2500 2.60656
36.4603 1.90365
36.6705 1.54744
36.8808 1.35918
37.0910 1.35994
37.1705 1.46562
37.2500 1.60265
37.4090 1.47278
37.6015 1.35345
37.7940 1.48565
37.9865 1.97526
38.0828 2.55631
38.1790 3.70039
38.2565 5.25982
38.3340 6.59714
38.4115 5.92637
38.4890 4.44858
38.5655 3.56029
38.6421 3.22043
38.7186 3.24642
38.7951 3.57013
38.8716 4.23674
38.9482 5.45403
39.0247 7.97615
39.0629 10.8411
39.0821 13.6819
39.1012 19.1611
39.1149 25.7975
39.1285 31.4431
39.1557 24.5251
39.1798 21.6140
39.2039 23.4019
39.2280 27.9530
39.2521 35.4147
39.2761 47.1761
39.3002 66.2417
39.3243 98.6892
39.3484 156.018
39.3610 201.028
39.3736 256.478
39.3988 352.117
39.4114 349.661
39.4240 308.012
39.4492 195.506
39.4699 129.335
39.4907 88.5232
39.5114 63.3897
39.5321 47.3657
39.5736 29.3608
39.6150 20.3124
39.6565 15.3624
39.6979 12.6237
39.7394 11.3363
39.7808 11.2766
39.8849 15.3707
39.9110 15.2927
39.9370 13.9237
39.9891 9.94592
40.0340 7.43085
40.0790 5.92252
40.1239 5.06536
40.1689 4.63219
40.2138 4.52776
40.2587 4.75628
40.3037 5.42416
40.3486 6.77430
40.3752 8.03702
40.4017 9.68903
40.4548 13.0344
40.4814 13.3381
40.5079 12.2498
40.5610 8.57677
40.5985 6.54709
40.6360 5.19718
40.7110 3.75853
40.7860 3.15552
40.8610 2.95312
41.0110 3.32346
41.0860 3.98224
41.1610 5.23104
41.3000 9.61183
41.3980 10.8657
41.4390 11.6372
41.5350 15.4423
41.5693 16.1011
41.6035 16.0629
41.6720 17.3075
41.7128 21.9165
41.7332 26.6924
41.7536 34.6520
41.7740 48.5844
41.7944 75.1322
41.8046 97.8642
41.8148 132.291
41.8250 186.159
41.8352 271.273
41.8417 347.091
41.8483 435.692
41.8613 559.659
41.8679 535.458
41.8744 460.320
41.8875 290.109
41.8957 213.513
41.9039 160.088
41.9202 97.0049
41.9365 64.4311
41.9529 46.0501
41.9692 34.8520
41.9856 27.6418
42.0183 19.5087
42.0509 15.7881
42.0836 14.7375
42.1163 16.3087
42.1490 22.0109
42.2030 41.3051
42.2165 41.1183
42.2300 36.7718
42.2570 24.6703
42.2835 16.3689
42.3099 11.6467
42.3364 8.93094
42.3628 7.29418
42.4157 5.64298
42.4686 5.15107
42.5215 5.59359
42.5480 6.33539
42.5744 7.73881
42.6009 10.4658
42.6273 16.3655
42.6405 22.0920
42.6538 31.9326
42.6670 50.2416
42.6802 86.0870
42.6916 136.955
42.7030 172.632
42.7144 139.797
42.7258 88.1631
42.7356 58.4720
42.7454 40.4633
42.7552 29.4099
42.7650 22.3393
42.7846 14.3242
42.8042 10.2044
42.8238 7.83870
42.8434 6.37092
42.8826 4.75315
42.9218 3.97601
42.9610 3.60787
43.0394 3.56411
43.1177 4.36163
43.1569 5.27675
43.1961 6.89038
43.2353 9.96047
43.2549 12.6045
43.2745 16.6871
43.2941 23.4190
43.3137 35.4783
43.3333 59.4613
43.3431 80.4261
43.3529 111.476
43.3675 179.344
43.3820 230.873
43.3965 190.287
43.4110 120.151
43.4223 82.3468
43.4335 58.2232
43.4448 42.8136
43.4560 32.6648
43.4785 20.8399
43.5010 14.6137
43.5235 10.9982
43.5460 8.74638
43.5910 6.28404
43.6511 4.96093
43.7112 4.77005
43.7712 5.60490
