U-238(n,tot) ENDF/B-VII.1
Energy(eV) XS(b)
1.00000E-05 143.717
1.25000E-05 129.524
1.50000E-05 119.048
2.00000E-05 104.342
2.75000E-05 90.3500
3.50000E-05 81.1413
4.25000E-05 74.4935
5.00000E-05 69.4042
6.25000E-05 63.0571
7.50000E-05 58.3720
0.000100000 51.7955
0.000125000 47.3075
0.000150000 43.9946
0.000200000 39.3444
0.000275000 34.9197
0.000350000 32.0078
0.000425000 29.9057
0.000500000 28.2964
0.000625000 26.2894
0.000750000 24.8079
0.00100000 22.7285
0.00125000 21.3094
0.00150000 20.2619
0.00200000 18.7917
0.00275000 17.3928
0.00350000 16.4723
0.00425000 15.8077
0.00500000 15.2991
0.00625000 14.6647
0.00750000 14.1965
0.0100000 13.5393
0.0125000 13.0909
0.0150000 12.7599
0.0200000 12.2954
0.0253000 11.9624
0.0314750 11.6862
0.0376500 11.4811
0.0500000 11.1916
0.0625000 10.9908
0.0750000 10.8425
0.100000 10.6338
0.125000 10.4908
0.150000 10.3849
0.200000 10.2349
0.275000 10.0899
0.350000 9.99206
0.500000 9.86215
0.750000 9.72880
1.00000 9.63826
1.50000 9.50706
2.00000 9.40360
2.59900 9.29495
3.19799 9.19655
3.79699 9.11357
4.09648 9.08688
4.24623 9.08850
4.32111 9.12148
4.35854 9.22107
4.37726 9.43404
4.38662 9.74050
4.39598 10.5085
4.40748 11.9485
4.41898 10.5114
4.42806 9.75765
4.43714 9.44899
4.45529 9.23034
4.49161 9.12673
4.56424 9.09355
4.70949 9.10005
5.00000 9.18878
5.20766 9.33575
5.41531 9.61779
5.62297 10.1707
5.83063 11.3330
5.93445 12.4013
6.03828 14.1267
6.14211 17.1078
6.24594 22.7802
6.29785 27.6873
6.34977 35.3014
6.40168 47.9412
6.45359 71.0010
6.47955 90.3038
6.49253 103.291
6.50551 119.462
6.51200 129.073
6.51524 134.335
6.51849 139.932
6.52173 145.899
6.52498 152.263
6.52822 159.066
6.53147 166.341
6.53796 182.510
6.54444 201.193
6.55093 222.936
6.55742 248.436
6.56391 278.604
6.57040 314.623
6.57689 358.095
6.58338 411.196
6.58987 476.959
6.59636 559.654
6.60285 665.541
6.60934 803.988
6.61583 989.551
6.62232 1245.58
6.62880 1611.52
6.63529 2157.42
6.64178 3015.42
6.64827 4449.69
6.65476 7012.46
6.65801 9029.69
6.66125 11765.2
6.66737 18904.1
6.67349 23734.6
6.67961 19072.4
6.68573 11974.6
6.68955 8824.93
6.69337 6621.47
6.70101 4003.03
6.70865 2637.09
6.71630 1857.02
6.72394 1375.62
6.73158 1059.58
6.74686 685.239
6.76214 481.095
6.77742 357.847
6.79271 277.782
6.80799 222.829
6.83855 154.282
6.86912 114.685
6.89968 89.7040
6.93025 72.9011
6.99137 52.3317
7.05250 40.6365
7.11363 33.3174
7.17476 28.4118
7.23589 24.9499
7.29702 22.4069
7.41928 18.9756
7.54153 16.8106
7.66379 15.4804
7.67529 15.5071
7.68679 15.2570
7.72293 14.8074
7.75908 14.5010
7.83137 13.9779
7.97594 13.1601
8.26509 12.0784
8.55424 11.3991
8.84340 10.9329
9.42170 10.3291
9.71085 10.1218
10.0000 9.97939
10.0570 9.97912
10.1140 10.0314
10.1424 10.1215
10.1709 10.3645
10.1852 10.6542
10.1994 11.2823
10.2065 11.9017
10.2137 12.9903
10.2208 15.0806
10.2243 16.8389
10.2279 19.3501
10.2337 25.0615
10.2394 28.8230
10.2452 24.9797
10.2509 19.2831
10.2550 16.4738
10.2591 14.6150
10.2673 12.5487
10.2756 11.5383
10.2838 10.9852
10.3002 10.4373
10.3166 10.1850
10.3495 9.96172
10.3823 9.86302
10.4480 9.76767
10.5137 9.71371
10.7766 9.57804
11.0394 9.47581
11.1708 9.44536
11.2365 9.48388
11.2529 9.53066
11.2694 9.64124
11.2776 9.75706
11.2858 9.97142
11.2940 10.4144
11.2981 10.8147
11.3022 11.4189
11.3080 12.6484
11.3137 13.4786
11.3195 12.6643
11.3252 11.4271
11.3292 10.8274
11.3332 10.4255
11.3412 9.97179
11.3492 9.74662
11.3572 9.62160
11.3732 9.49504
11.3892 9.43442
11.4531 9.34651
11.5811 9.28279
11.8369 9.19327
12.3486 9.03255
13.3720 8.72860
14.3953 8.41925
15.4187 8.07954
16.4421 7.68467
17.4655 7.21131
17.9771 6.94795
18.4888 6.69666
19.0005 6.57170
19.2564 6.68124
19.3843 6.86749
19.4482 7.11861
19.4802 7.56718
19.4962 8.35204
19.5042 9.34972
19.5122 11.5338
19.5237 16.0742
19.5352 11.6280
19.5425 9.59886
19.5497 8.63025
19.5643 7.87195
19.5933 7.53502
19.6514 7.59252
19.7676 8.17369
20.0000 10.7734
20.1069 13.1875
20.1603 14.9343
20.2138 17.2192
20.2271 17.8979
20.2405 18.6275
20.2538 19.4128
20.2672 20.2590
20.2739 20.7068
20.2806 21.1721
20.2872 21.6559
20.2939 22.1589
20.3006 22.6821
20.3073 23.2266
20.3206 24.3839
20.3340 25.6402
20.3474 27.0064
20.3741 30.1192
20.4008 33.8431
20.4275 38.3356
20.4542 43.8134
20.4809 50.5658
20.5077 58.9968
20.5344 69.6803
20.5611 83.4522
20.5878 101.567
20.6145 125.974
20.6413 159.811
20.6680 208.473
20.6947 281.670
20.7214 398.457
20.7481 600.269
20.7615 760.591
20.7749 991.040
20.7882 1337.95
20.8016 1892.04
20.8149 2848.84
20.8283 4683.83
20.8350 6277.35
20.8417 8727.40
20.8483 12632.2
20.8550 18901.8
20.8633 30524.7
20.8715 38536.2
20.8798 31105.8
20.8880 19594.9
20.8945 13428.2
20.9009 9498.33
20.9074 6976.05
20.9138 5304.55
20.9267 3337.02
20.9396 2286.34
20.9525 1664.71
20.9654 1268.64
20.9912 811.760
21.0170 568.174
21.0428 423.006
21.0687 329.314
21.0945 265.255
21.1461 185.412
21.1977 139.190
21.2493 109.877
21.3009 90.0277
21.4041 65.4605
21.5074 51.2598
21.6106 42.2193
21.7138 36.0574
21.9203 28.3364
22.1267 23.7837
22.3332 20.8240
22.5396 18.7626
22.9525 16.0983
23.3654 14.4560
23.7783 13.3385
23.9848 12.9026
24.0880 12.7111
24.1396 12.6326
24.1654 12.6233
24.1783 12.6635
24.1912 12.8513
24.2027 13.1642
24.2142 12.8145
24.2252 12.6010
24.2362 12.5150
24.2582 12.4358
24.3021 12.3455
24.3901 12.2015
24.5659 11.9438
24.9177 11.4962
25.6212 10.7821
26.3246 10.2164
26.6764 9.96841
26.8522 9.85277
26.9402 9.80379
26.9841 9.80140
27.0061 9.84739
27.0171 9.93557
27.0226 10.0322
27.0281 10.2027
27.0396 10.6638
27.0511 10.1881
27.0605 9.93168
27.0699 9.82584
27.0886 9.74446
27.1261 9.68792
27.2012 9.62889
27.3512 9.53177
27.6513 9.34784
28.2514 8.99317
29.4518 8.29200
30.6521 7.53924
31.8525 6.66487
32.4526 6.16311
33.0528 5.61930
33.6530 5.06870
34.2531 4.66230
34.5532 4.66363
34.8533 5.03009
35.0034 5.47580
35.1534 6.22503
35.1909 6.47820
35.2284 6.76446
35.2659 7.08804
35.3034 7.45382
35.3409 7.86745
35.3597 8.09427
35.3785 8.33546
35.3972 8.59226
35.4160 8.86546
35.4535 9.46633
35.4910 10.1487
35.5285 10.9244
35.6035 12.8175
35.6785 15.2989
35.7536 18.5906
35.8286 23.0231
35.9036 29.1032
35.9786 37.6371
36.0536 49.9638
36.1287 68.4295
36.2037 97.4277
36.2787 145.926
36.3537 234.470
36.3912 308.188
36.4287 418.531
36.4663 593.171
36.5038 891.010
36.5413 1455.04
36.5600 1943.72
36.5788 2703.45
36.5975 3966.27
36.6163 6246.76
36.6257 8110.29
36.6351 10810.2
36.6444 14802.0
36.6538 20686.5
36.6680 33529.5
36.6821 42465.3
36.6963 34394.7
36.7104 21751.2
36.7233 14109.6
36.7361 9566.05
36.7490 6818.22
36.7619 5077.89
36.7876 3115.63
36.8133 2108.02
36.8391 1526.10
36.8648 1160.69
36.9163 744.384
36.9677 524.460
37.0192 393.781
37.0707 309.464
37.1221 251.706
37.2251 179.426
37.3280 137.247
37.4309 110.263
37.5339 91.8243
37.7397 68.7068
37.9456 55.1053
38.1514 46.3026
38.3573 40.2095
38.5632 35.7754
38.7690 32.4222
39.1808 27.7166
39.5925 24.5934
40.0042 22.3796
40.4159 20.7322
40.8276 19.4598
41.6511 17.6221
42.4745 16.3556
42.8863 15.8585
43.0921 15.6381
43.1950 15.5436
43.2465 15.5281
43.2722 15.5920
43.2851 15.7345
43.2915 15.9064
43.2980 16.2403
43.3037 16.7243
43.3095 17.0451
43.3152 16.7132
43.3210 16.2180
43.3282 15.8425
43.3354 15.6564
43.3498 15.4967
43.3786 15.3901
43.4363 15.3047
43.5516 15.1884
43.7822 14.9829
44.2435 14.6145
44.7047 14.2905
44.9353 14.1490
45.0506 14.1066
45.0795 14.1160
45.1083 14.1648
45.1227 14.2328
45.1371 14.3884
45.1443 14.5458
45.1515 14.8254
45.1587 15.3690
45.1659 16.4900
45.1717 17.9831
45.1774 18.9775
45.1832 17.9767
45.1889 16.4769
45.1956 15.4088
45.2022 14.8586
45.2089 14.5599
45.2155 14.3839
45.2288 14.1970
45.2421 14.1039
45.2686 14.0132
45.2952 13.9667
45.4014 13.8715
45.6139 13.7435
46.0389 13.5191
46.4638 13.3145
46.6763 13.2193
46.7825 13.1774
46.8357 13.1699
46.8622 13.1976
46.8755 13.2612
46.8821 13.3395
46.8888 13.4945
46.9003 13.8598
46.9118 13.4846
46.9171 13.3480
46.9224 13.2672
46.9330 13.1864
46.9543 13.1282
46.9968 13.0884
47.0819 13.0453
47.2521 12.9731
47.5924 12.8377
48.2730 12.5868
48.9537 12.3573
49.2940 12.2509
49.4642 12.2059
49.5492 12.2067
49.5705 12.2240
49.5918 12.2730
49.6024 12.3299
49.6131 12.4455
49.6184 12.5510
49.6237 12.7203
49.6290 13.0054
49.6343 13.4929
49.6401 14.3011
49.6458 14.8394
49.6516 14.2979
49.6573 13.4863
49.6627 12.9920
49.6680 12.7039
49.6734 12.5316
49.6787 12.4235
49.6895 12.3019
49.7002 12.2391
49.7216 12.1777
49.7430 12.1477
49.8287 12.0954
50.0000 12.0370
50.5079 11.8886
51.0157 11.7478
52.0314 11.4787
54.0629 10.9661
56.0943 10.4448
57.1100 10.1627
57.6179 10.0125
57.8718 9.93563
57.9988 9.90114
58.0622 9.89895
58.0940 9.93703
58.1098 10.0260
58.1178 10.1460
58.1257 10.4131
58.1315 10.7474
58.1372 10.9697
58.1430 10.7438
58.1487 10.4057
58.1540 10.2030
58.1592 10.0828
58.1697 9.96364
58.1906 9.88144
58.2325 9.83417
58.3163 9.79509
58.4839 9.73562
58.8191 9.61844
59.4895 9.36659
60.8303 8.75570
61.5007 8.37053
62.1711 7.90601
62.8415 7.33563
63.1767 7.01246
63.3443 6.88488
63.4281 6.97894
63.4490 7.12112
63.4700 7.48356
63.4805 7.88948
63.4909 8.70007
63.4962 9.43140
63.5014 10.5941
63.5067 12.5378
63.5119 15.8315
63.5176 21.3629
63.5234 25.0418
63.5292 21.3404
63.5349 15.8061
63.5397 12.6965
63.5446 10.7835
63.5494 9.59285
63.5542 8.82175
63.5639 7.93381
63.5735 7.46669
63.5929 7.01391
63.6122 6.80309
63.6894 6.49331
63.8440 6.23928
64.1530 5.84666
64.4621 5.54752
64.7712 5.58550
64.9257 5.95720
65.0802 6.88677
65.1575 7.73119
65.1961 8.30046
65.2348 8.99873
65.2541 9.40586
65.2734 9.85775
65.2927 10.3598
65.3120 10.9180
65.3313 11.5400
65.3507 12.2335
65.3700 13.0087
65.3893 13.8759
65.4086 14.8491
65.4279 15.9430
65.4666 18.5672
65.5052 21.9363
65.5438 26.3190
65.5825 32.1119
65.6211 39.9103
65.6597 50.6528
65.6983 65.8703
65.7370 88.1979
65.7756 122.426
65.8142 178.051
65.8529 275.888
65.8722 354.591
65.8915 468.691
65.9108 641.923
65.9301 920.822
65.9495 1406.87
65.9591 1793.79
65.9688 2347.06
65.9784 3169.58
65.9881 4441.17
65.9978 6480.25
66.0074 9778.94
66.0193 15928.2
66.0312 20249.5
66.0431 16470.6
66.0549 10475.0
66.0661 6710.52
66.0774 4513.09
66.0886 3201.56
66.0998 2379.37
66.1111 1835.84
66.1223 1460.73
66.1448 992.201
66.1672 722.351
66.1897 553.029
66.2346 359.896
66.2796 257.556
66.3245 196.468
66.3694 156.870
66.4144 129.603
66.5042 95.2344
66.5941 74.9808
66.6839 61.9004
66.7738 52.8822
66.9535 41.4405
67.1333 34.6060
67.3130 30.1240
67.4028 28.4307
67.4478 27.6991
67.4927 27.3129
67.5042 27.4772
67.5157 26.9784
67.5539 26.1501
67.5922 25.6305
67.6687 24.7132
67.8216 23.1723
68.1276 20.8861
68.4335 19.2738
68.7395 18.0773
69.3514 16.4193
69.9633 15.3209
70.5752 14.5340
71.1871 13.9375
71.7990 13.4657
72.1049 13.2656
72.2579 13.1805
72.3344 13.1665
72.3535 13.1826
72.3726 13.2339
72.3822 13.2945
72.3917 13.4159
72.4013 13.6915
72.4061 13.9623
72.4108 14.4024
72.4166 15.1942
72.4223 15.7210
72.4281 15.1877
72.4338 14.3894
72.4379 13.9981
72.4420 13.7377
72.4501 13.4439
72.4582 13.2976
72.4663 13.2154
72.4825 13.1297
72.4987 13.0858
72.5636 13.0081
72.6933 12.9246
72.9527 12.7862
73.4715 12.5389
74.5091 12.1157
76.5843 11.4249
77.6220 11.1021
78.1408 10.9320
78.6596 10.7460
79.1784 10.5306
79.4378 10.4063
79.6972 10.2703
79.8269 10.2015
79.9566 10.1402
80.0863 10.1058
80.2160 10.1549
80.2809 10.2585
80.3457 10.4803
80.4106 10.9441
80.4754 11.9566
80.5078 12.9000
80.5403 14.4261
80.5727 17.0464
80.6051 21.9377
80.6375 32.3053
80.6538 42.2496
80.6700 59.3165
80.6862 91.8067
80.6902 104.469
80.6943 119.996
80.6983 139.331
80.7024 163.765
80.7065 195.249
80.7105 236.383
80.7146 291.386
80.7186 366.666
80.7227 472.611
80.7267 624.654
80.7308 847.333
80.7348 1172.59
80.7380 1512.17
80.7411 1905.23
80.7474 2421.76
80.7506 2300.35
80.7538 1974.01
80.7601 1260.05
80.7646 901.663
80.7691 661.899
80.7736 501.653
80.7781 392.158
80.7871 258.582
80.7960 184.575
80.8050 139.692
80.8140 110.510
80.8320 76.1366
80.8500 57.3849
80.8680 45.9952
80.8859 38.5297
80.9039 33.3510
80.9399 26.7808
80.9759 22.8903
81.0118 20.3720
81.0478 18.6343
81.1197 16.4291
81.1916 15.1123
81.2635 14.2483
81.3355 13.6422
81.4074 13.1951
81.4793 12.8524
81.6232 12.3612
81.7670 12.0249
81.9109 11.7783
82.0547 11.5879
82.1986 11.4349
82.3424 11.3081
82.4862 11.2002
82.7739 11.0238
82.9178 10.9505
82.9897 10.9195
83.0257 10.9121
83.0436 10.9231
83.0616 11.0065
83.0731 11.1258
83.0846 10.9965
83.1036 10.8950
83.1226 10.8687
83.1605 10.8444
83.2364 10.8115
83.3882 10.7598
83.4641 10.7444
83.5400 10.7532
83.5779 10.7874
83.5969 10.8256
83.6159 10.8957
83.6348 11.0360
83.6443 11.1622
83.6538 11.3645
83.6633 11.7153
83.6728 12.3888
83.6775 12.9762
83.6823 13.8796
83.6870 15.3236
83.6917 17.6533
83.6975 21.8725
83.7033 24.6795
83.7090 21.8613
83.7148 17.6461
83.7202 15.0674
83.7256 13.5729
83.7309 12.6856
83.7363 12.1312
83.7471 11.5157
83.7579 11.2039
83.7687 11.0251
83.7795 10.9131
83.8010 10.7846
83.8226 10.7149
83.8442 10.6714
83.8873 10.6189
83.9735 10.5617
84.0598 10.5238
84.4048 10.4094
85.0949 10.2172
86.4750 9.87113
87.8551 9.53932
88.2001 9.45969
88.5452 9.39066
88.7177 9.37171
88.8040 9.37449
88.8902 9.39746
88.9765 9.47032
89.0196 9.55211
89.0627 9.70637
89.1058 10.0338
89.1274 10.3490
89.1490 10.8952
89.1705 11.9598
89.1813 12.9132
89.1921 14.4540
89.2029 17.1674
89.2137 22.5529
89.2191 27.4130
89.2244 35.1943
89.2298 48.2938
89.2352 70.8100
89.2410 107.834
89.2468 132.465
89.2526 107.769
89.2583 70.8124
89.2621 53.8477
89.2659 42.2046
89.2734 28.6992
89.2809 21.8139
89.2885 17.9521
89.2960 15.5942
89.3035 14.0623
89.3186 12.2645
89.3337 11.2929
89.3487 10.7106
89.3789 10.0757
89.4090 9.75388
89.4391 9.56679
89.4994 9.36471
89.5596 9.25891
89.6199 9.19271
89.7404 9.10909
89.9815 9.00513
90.2225 8.92371
91.1867 8.62298
92.1508 8.30363
92.6329 8.13342
92.8739 8.05451
92.9342 8.04289
92.9945 8.05006
93.0246 8.07711
93.0547 8.16105
93.0698 8.26641
93.0849 8.50149
93.0924 8.73874
93.0999 9.16365
93.1075 10.0027
93.1112 10.7287
93.1150 11.7855
93.1207 14.0871
93.1265 15.6208
93.1322 14.0830
93.1380 11.7769
93.1428 10.4914
93.1475 9.69817
93.1523 9.20133
93.1571 8.87933
93.1666 8.50724
93.1762 8.31137
93.1953 8.12213
93.2144 8.03500
93.2526 7.95375
93.2908 7.91243
93.4435 7.82264
93.7490 7.68616
94.3601 7.40760
95.5822 6.76212
96.8043 5.95197
97.4153 5.46574
97.7208 5.20222
97.8736 5.07825
97.9500 5.06168
97.9882 5.18256
97.9977 5.28909
98.0073 5.50178
98.0168 5.98366
98.0216 6.45591
98.0264 7.22276
98.0321 8.60426
98.0379 9.52342
98.0436 8.59340
98.0494 7.20087
98.0570 6.10993
98.0646 5.59588
98.0722 5.33251
98.0798 5.18207
98.0951 5.02395
98.1103 4.94314
98.1713 4.80366
98.2932 4.65700
98.5370 4.39848
99.0247 3.86884
99.5123 3.33921
100.000 2.91323
100.314 2.82574
100.471 2.90196
100.628 3.11372
100.706 3.29134
100.785 3.53228
100.863 3.85215
100.903 4.04748
100.942 4.27039
100.981 4.52501
101.020 4.81398
101.059 5.14238
101.099 5.51538
101.177 6.42132
101.256 7.58965
101.334 9.10547
101.413 11.0813
101.491 13.6778
101.569 17.1216
101.648 21.7642
101.726 28.1236
101.805 37.0227
101.883 49.7935
101.962 68.7990
102.040 98.3111
102.119 146.852
102.197 233.089
102.237 303.182
102.276 405.133
102.315 560.783
102.354 813.026
102.393 1256.89
102.413 1611.57
102.433 2121.76
102.452 2883.78
102.472 4069.88
102.491 5988.08
102.511 9127.48
102.535 14996.2
102.547 17839.2
102.553 18744.3
102.556 18998.4
102.559 19104.0
102.562 19057.4
102.565 18870.7
102.571 18104.3
102.583 15549.4
102.606 9952.37
102.623 7124.14
102.640 5225.03
102.656 3951.75
102.673 3077.86
102.707 2010.54
102.740 1417.53
102.774 1057.07
102.808 822.252
102.875 544.993
102.942 393.286
103.009 300.896
103.076 240.193
103.144 197.992
103.278 144.310
103.412 112.402
103.547 91.6878
103.681 77.3684
103.950 59.1361
104.219 48.2253
104.487 41.0581
104.756 36.0355
105.294 29.5109
105.831 25.4861
106.369 22.7612
106.906 20.7895
107.981 18.0985
109.056 16.2953
110.131 14.9322
110.669 14.3420
110.938 14.0676
111.072 13.9608
111.106 13.9568
111.139 13.9989
111.156 14.0726
111.173 14.2576
111.181 14.4565
111.190 14.8312
111.198 15.6195
111.202 16.3408
111.206 17.4113
111.212 19.6047
111.218 21.0312
111.224 19.5529
111.229 17.3881
111.235 16.0121
111.240 15.2379
111.246 14.7801
111.251 14.4938
111.262 14.1735
111.273 14.0073
111.295 13.8422
111.317 13.7593
111.362 13.6651
111.406 13.6011
111.582 13.4019
111.934 13.0373
112.639 12.2961
113.344 11.4817
114.049 10.5156
114.401 9.93931
114.754 9.27437
115.106 8.49975
115.459 7.62084
115.635 7.17705
115.811 6.80688
115.987 6.69144
116.164 7.35459
116.252 8.41713
116.296 9.30647
116.318 9.87978
116.340 10.5617
116.362 11.3779
116.384 12.3478
116.406 13.5082
116.428 14.9013
116.439 15.7091
116.450 16.5893
116.472 18.6263
116.494 21.1093
116.516 24.1568
116.538 27.9467
116.560 32.6611
116.582 38.6137
116.604 46.2254
116.626 56.1555
116.648 69.2198
116.670 86.8391
116.692 111.205
116.714 146.141
116.736 197.709
116.758 277.914
116.780 410.808
116.803 652.098
116.814 849.795
116.825 1141.08
116.836 1589.56
116.847 2315.64
116.858 3551.36
116.869 5700.75
116.880 9344.55
116.886 11136.1
116.892 11958.3
116.898 11378.7
116.904 9798.49
116.916 6277.98
116.926 4347.20
116.935 3106.99
116.944 2306.96
116.954 1778.80
116.972 1145.09
116.991 804.312
117.010 599.405
117.029 467.985
117.066 313.864
117.104 229.700
117.141 178.516
117.179 144.858
117.216 121.464
117.291 91.4919
117.366 73.5761
117.441 61.8569
117.516 53.6897
117.666 43.1881
117.815 36.8200
117.965 32.5900
118.115 29.5955
118.415 25.6539
118.715 23.1883
119.014 21.5063
119.164 20.8679
119.239 20.6432
119.258 20.6333
119.277 20.7021
119.286 20.8139
119.295 21.0557
119.305 21.6325
119.309 22.2048
119.314 23.1096
119.320 24.8087
119.326 25.9086
119.331 24.7369
119.337 23.0291
119.343 21.9386
119.348 21.3104
119.359 20.7015
119.370 20.4242
119.382 20.2671
119.426 19.9652
119.515 19.6370
119.693 19.1268
120.048 18.3085
120.759 17.1392
121.470 16.3311
122.182 15.7309
123.604 14.8819
124.315 14.5671
124.671 14.4384
124.759 14.4170
124.848 14.4171
124.893 14.4445
124.915 14.4778
124.937 14.5411
124.959 14.6718
124.971 14.7922
124.982 14.9899
124.993 15.3428
125.004 16.0536
125.009 16.7103
125.015 17.7549
125.021 19.5740
125.026 22.7006
125.032 27.7881
125.038 31.1002
125.043 27.6912
125.049 22.6933
125.053 20.2047
125.057 18.5887
125.061 17.4852
125.065 16.7510
125.073 15.8483
125.081 15.3568
125.089 15.0562
125.098 14.8621
125.114 14.6359
125.130 14.5118
125.146 14.4362
125.178 14.3496
125.243 14.2684
125.307 14.2243
125.436 14.1648
125.565 14.1168
126.081 13.9521
127.113 13.6698
129.177 13.2129
131.242 12.8475
132.274 12.6884
132.790 12.6152
133.048 12.5872
133.112 12.5866
133.177 12.6002
133.209 12.6247
133.241 12.6923
133.257 12.7755
133.274 12.9605
133.282 13.1506
133.290 13.4933
133.298 14.2005
133.302 14.8237
133.306 15.7555
133.312 17.7013
133.317 18.9682
133.323 17.6642
133.329 15.7526
133.334 14.5883
133.339 13.9156
133.345 13.5037
133.350 13.2493
133.360 12.9614
133.371 12.8146
133.392 12.6773
133.413 12.6166
