C-13(n,g) JEFF-3.2
Energy(eV) XS(b)
1.00000E-05 0.0687703
1.25000E-05 0.0615100
1.50000E-05 0.0561507
2.00000E-05 0.0486279
2.75000E-05 0.0414700
3.50000E-05 0.0367593
4.25000E-05 0.0333585
5.00000E-05 0.0307550
6.25000E-05 0.0275081
7.50000E-05 0.0251114
0.000100000 0.0217471
0.000125000 0.0194512
0.000150000 0.0177564
0.000200000 0.0153775
0.000275000 0.0131140
0.000350000 0.0116243
0.000425000 0.0105489
0.000500000 0.00972559
0.000625000 0.00869883
0.000750000 0.00794091
0.00100000 0.00687703
0.00125000 0.00615100
0.00150000 0.00561507
0.00200000 0.00486280
0.00275000 0.00414701
0.00350000 0.00367593
0.00425000 0.00333585
0.00500000 0.00307551
0.00625000 0.00275082
0.00750000 0.00251114
0.0100000 0.00217472
0.0125000 0.00194513
0.0150000 0.00177565
0.0200000 0.00153777
0.0253000 0.00136725
0.0314750 0.00122582
0.0376500 0.00112081
0.0500000 0.000972601
0.0625000 0.000869936
0.0750000 0.000794154
0.100000 0.000687703
0.150000 0.000561506
0.200000 0.000486280
0.275000 0.000414700
0.350000 0.000367592
0.500000 0.000307550
0.750000 0.000251114
1.00000 0.000217471
1.50000 0.000177565
2.00000 0.000153776
2.75000 0.000131141
3.50000 0.000116244
5.00000 9.72564E-05
7.50000 7.94099E-05
10.0000 6.87712E-05
15.0000 5.61518E-05
20.0000 4.86292E-05
27.5000 4.14715E-05
35.0000 3.67609E-05
50.0000 3.07570E-05
75.0000 2.51138E-05
100.000 2.17499E-05
150.000 1.77599E-05
200.000 1.53815E-05
275.000 1.31187E-05
350.000 1.16296E-05
500.000 9.73193E-06
750.000 7.94873E-06
1000.00 6.88613E-06
1500.00 5.62637E-06
2000.00 4.87603E-06
2750.00 4.16285E-06
3500.00 3.69418E-06
5000.00 3.09823E-06
7500.00 2.54093E-06
10000.0 2.21147E-06
15000.0 1.82690E-06
20000.0 1.60492E-06
27500.0 1.40624E-06
35000.0 1.29098E-06
50000.0 1.19505E-06
75000.0 1.32715E-06
87500.0 1.58565E-06
100000 2.12225E-06
106319 2.60056E-06
112638 3.34453E-06
118956 4.57369E-06
125275 6.79180E-06
128434 8.62772E-06
131594 1.13720E-05
134753 1.57260E-05
137913 2.32166E-05
141072 3.76939E-05
142652 5.05627E-05
144231 7.11896E-05
145811 0.000107062
147391 0.000176779
148181 0.000238246
148970 0.000334215
149760 0.000490226
150550 0.000746489
151475 0.00119323
152400 0.00147485
153325 0.00116694
154250 0.000728897
155019 0.000487001
155787 0.000337509
156556 0.000243996
157325 0.000183221
158862 0.000113127
160400 7.63998E-05
161937 5.49856E-05
163474 4.14760E-05
166549 2.60768E-05
169624 1.79804E-05
172698 1.32068E-05
178848 8.08900E-06
184997 5.54112E-06
191147 4.08640E-06
203445 2.56473E-06
215744 1.81900E-06
228043 1.39406E-06
252641 9.44928E-07
277238 7.18478E-07
301836 5.84573E-07
351031 4.34738E-07
449422 3.01623E-07
547813 2.41033E-07
744594 1.90596E-07
941375 1.84652E-07
1.13816E+06 2.18807E-07
1.23655E+06 2.61873E-07
1.33494E+06 3.42801E-07
1.43333E+06 5.13014E-07
1.48252E+06 6.77592E-07
1.53172E+06 9.67673E-07
1.58092E+06 1.55464E-06
1.60551E+06 2.10609E-06
1.63011E+06 3.04926E-06
1.65471E+06 4.87128E-06
1.66701E+06 6.50262E-06
1.67931E+06 9.15836E-06
1.69160E+06 1.39429E-05
1.69775E+06 1.79452E-05
1.70390E+06 2.40397E-05
1.71005E+06 3.40384E-05
1.71620E+06 5.22206E-05
1.71928E+06 6.74555E-05
1.72235E+06 9.03433E-05
1.72543E+06 0.000126134
1.72850E+06 0.000182816
1.73450E+06 0.000339914
1.73600E+06 0.000354182
1.73975E+06 0.000294446
1.74350E+06 0.000203306
1.74638E+06 0.000156890
1.74925E+06 0.000127765
1.75500E+06 9.48222E-05
1.76525E+06 5.89194E-05
1.77550E+06 3.53869E-05
1.78544E+06 2.24857E-05
1.79538E+06 1.52203E-05
1.80531E+06 1.09053E-05
1.81525E+06 8.18277E-06
1.83513E+06 5.10809E-06
1.85500E+06 3.51818E-06
1.87488E+06 2.59593E-06
1.89475E+06 2.01592E-06
1.93450E+06 1.35921E-06
1.97425E+06 1.02098E-06
2.01400E+06 8.30403E-07
2.09350E+06 6.57711E-07
2.17300E+06 6.37966E-07
2.25250E+06 7.90754E-07
2.29225E+06 1.03698E-06
2.31213E+06 1.28077E-06
2.33200E+06 1.71422E-06
2.35188E+06 2.59699E-06
2.36181E+06 3.43057E-06
2.37175E+06 4.86344E-06
2.38169E+06 7.65105E-06
2.38666E+06 1.01612E-05
2.39163E+06 1.42586E-05
2.39659E+06 2.16215E-05
2.39908E+06 2.77151E-05
2.40156E+06 3.68139E-05
2.40405E+06 5.11805E-05
2.40653E+06 7.54052E-05
2.40902E+06 0.000119340
2.41150E+06 0.000202345
2.41375E+06 0.000321060
2.41600E+06 0.000394478
2.41825E+06 0.000312730
2.42050E+06 0.000198891
2.42200E+06 0.000147086
2.42350E+06 0.000112607
2.42563E+06 8.31091E-05
2.42775E+06 6.68909E-05
2.43200E+06 5.08208E-05
2.43625E+06 3.87098E-05
2.44050E+06 3.34006E-05
2.44160E+06 3.48527E-05
2.44500E+06 4.58893E-05
2.44670E+06 3.98940E-05
2.44840E+06 2.88654E-05
2.45006E+06 2.12322E-05
2.45172E+06 1.65496E-05
2.45504E+06 1.15184E-05
2.45836E+06 8.90985E-06
2.46168E+06 7.30301E-06
2.46831E+06 5.43269E-06
2.47495E+06 4.45555E-06
2.48823E+06 4.37607E-06
2.49486E+06 7.23480E-06
2.49652E+06 9.44017E-06
2.49818E+06 1.35524E-05
2.49984E+06 2.20123E-05
2.50067E+06 2.95016E-05
2.50150E+06 4.04029E-05
2.50275E+06 6.16363E-05
2.50338E+06 6.86949E-05
2.50400E+06 6.80792E-05
2.50650E+06 3.06053E-05
2.50757E+06 2.08776E-05
2.50863E+06 1.50006E-05
2.50970E+06 1.13320E-05
2.51077E+06 8.93962E-06
2.51290E+06 6.14708E-06
2.51503E+06 4.65304E-06
2.51930E+06 3.18093E-06
2.52356E+06 2.48958E-06
2.53209E+06 1.84623E-06
2.54063E+06 1.54062E-06
2.55769E+06 1.23676E-06
2.57475E+06 1.08246E-06
2.64300E+06 8.72419E-07
2.77950E+06 9.20291E-07
2.91600E+06 1.17678E-06
3.05250E+06 1.63534E-06
3.14175E+06 2.10344E-06
3.23100E+06 2.81453E-06
3.24000E+06 2.90670E-06
3.26750E+06 3.21695E-06
3.29500E+06 3.56938E-06
3.35000E+06 4.37448E-06
3.39500E+06 5.27394E-06
3.41750E+06 6.01682E-06
3.44000E+06 7.37950E-06
3.45125E+06 9.21241E-06
3.45688E+06 1.21855E-05
3.45969E+06 1.61619E-05
3.46109E+06 1.98986E-05
3.46250E+06 2.57905E-05
3.46425E+06 3.63557E-05
3.46600E+06 4.25278E-05
3.46900E+06 2.75346E-05
3.46950E+06 2.50292E-05
3.47077E+06 2.01799E-05
3.47203E+06 1.70263E-05
3.47456E+06 1.36108E-05
3.47963E+06 1.12485E-05
3.48975E+06 1.05165E-05
3.51000E+06 1.07925E-05
3.54500E+06 9.60361E-06
3.58000E+06 7.42955E-06
3.61250E+06 6.11977E-06
3.64500E+06 5.56102E-06
3.67750E+06 5.82704E-06
3.69375E+06 6.57086E-06
3.71000E+06 8.42815E-06
3.71950E+06 1.07976E-05
3.72900E+06 1.56454E-05
3.73375E+06 2.00999E-05
3.73850E+06 2.73236E-05
3.74325E+06 3.96462E-05
3.74800E+06 6.10581E-05
3.75300E+06 9.52384E-05
3.75800E+06 0.000115951
3.76800E+06 5.82982E-05
3.77112E+06 4.37681E-05
3.77424E+06 3.36315E-05
3.78047E+06 2.15672E-05
3.78670E+06 1.52440E-05
3.79294E+06 1.16129E-05
3.80541E+06 7.86517E-06
3.81788E+06 6.07446E-06
3.84281E+06 4.45198E-06
3.86775E+06 3.73328E-06
3.91763E+06 3.08489E-06
3.96750E+06 2.80157E-06
4.04952E+06 2.68366E-06
4.13154E+06 2.95623E-06
4.16500E+06 3.22601E-06
4.18000E+06 3.39165E-06
4.24125E+06 4.66259E-06
4.27188E+06 6.45407E-06
4.28719E+06 8.43009E-06
4.30250E+06 1.20842E-05
4.35000E+06 1.17098E-05
4.36188E+06 8.65746E-06
4.37375E+06 6.73934E-06
4.39750E+06 4.71561E-06
4.43188E+06 3.40528E-06
4.46625E+06 2.71382E-06
4.53500E+06 1.95880E-06
4.59150E+06 1.64240E-06
4.64800E+06 1.55198E-06
4.67625E+06 1.66890E-06
4.70450E+06 2.14840E-06
4.71863E+06 2.82489E-06
4.72569E+06 3.46631E-06
4.73275E+06 4.55199E-06
4.73981E+06 6.58306E-06
4.74688E+06 1.09884E-05
4.75394E+06 2.29564E-05
4.75747E+06 3.72594E-05
4.76100E+06 6.40632E-05
4.76325E+06 8.68443E-05
4.76550E+06 0.000101190
4.76775E+06 9.31286E-05
4.77000E+06 7.10714E-05
4.77225E+06 5.04201E-05
4.77450E+06 3.57822E-05
4.77900E+06 1.97011E-05
4.78295E+06 1.29430E-05
4.78691E+06 9.19157E-06
4.79086E+06 6.92857E-06
4.79481E+06 5.46954E-06
4.80272E+06 3.77466E-06
4.81063E+06 2.86880E-06
4.82644E+06 1.98294E-06
4.84225E+06 1.58008E-06
4.87388E+06 1.24188E-06
4.90550E+06 1.13035E-06
4.93713E+06 1.13015E-06
4.96875E+06 1.25230E-06
5.00038E+06 1.68902E-06
5.01619E+06 2.34784E-06
5.02409E+06 3.03925E-06
5.03200E+06 4.27017E-06
5.03950E+06 6.04571E-06
5.04700E+06 7.12643E-06
5.05450E+06 6.04664E-06
5.06200E+06 4.61832E-06
5.07175E+06 3.73080E-06
5.08150E+06 3.62158E-06
5.09125E+06 4.01580E-06
5.10100E+06 4.91875E-06
5.11075E+06 6.58592E-06
5.12050E+06 9.69572E-06
5.13025E+06 1.59371E-05
5.13513E+06 2.13481E-05
5.14000E+06 2.92120E-05
5.14750E+06 4.59665E-05
5.15500E+06 5.53509E-05
5.17000E+06 2.68340E-05
5.17538E+06 1.90765E-05
5.18075E+06 1.39630E-05
5.18613E+06 1.05721E-05
5.19150E+06 8.26243E-06
5.20225E+06 5.46434E-06
5.21300E+06 3.92435E-06
5.22375E+06 2.99608E-06
5.23450E+06 2.39607E-06
5.25600E+06 1.69505E-06
5.27750E+06 1.31704E-06
5.29900E+06 1.09036E-06
5.34200E+06 8.44796E-07
5.42800E+06 6.63882E-07
5.51400E+06 6.35865E-07
5.60000E+06 7.11914E-07
5.68600E+06 9.67491E-07
5.77200E+06 1.77145E-06
5.81500E+06 2.80821E-06
5.85800E+06 4.85897E-06
5.90300E+06 7.29123E-06
5.92550E+06 7.06947E-06
5.94800E+06 5.82219E-06
5.99300E+06 3.28418E-06
6.03800E+06 1.94041E-06
6.08281E+06 1.28982E-06
6.12763E+06 9.46510E-07
6.17244E+06 7.49694E-07
6.21725E+06 6.29924E-07
6.30688E+06 5.07823E-07
6.39650E+06 4.68979E-07
6.48613E+06 4.85975E-07
6.57575E+06 5.63852E-07
6.66538E+06 7.34425E-07
6.75500E+06 1.05110E-06
6.85250E+06 1.49079E-06
6.90125E+06 1.57184E-06
6.95000E+06 1.46494E-06
6.95010E+06 1.46456E-06
6.95010E+06 5.42185E-06
7.00000E+06 5.49710E-06
7.20000E+06 5.83837E-06
7.39644E+06 6.20630E-06
7.40000E+06 6.21297E-06
7.60000E+06 6.58298E-06
7.76083E+06 6.93036E-06
7.80000E+06 7.01496E-06
8.00000E+06 7.48073E-06
8.07315E+06 7.54233E-06
8.07315E+06 7.54233E-06
8.13242E+06 7.59225E-06
8.28220E+06 7.71838E-06
8.28220E+06 7.71838E-06
8.50000E+06 7.90180E-06
8.83607E+06 8.17237E-06
8.83607E+06 8.17237E-06
9.00000E+06 8.30435E-06
9.50000E+06 8.64011E-06
9.54727E+06 8.61694E-06
1.00000E+07 8.39500E-06
1.02367E+07 8.40587E-06
1.02367E+07 8.40587E-06
1.05000E+07 8.41795E-06
1.05521E+07 8.41149E-06
1.05537E+07 8.41129E-06
1.06647E+07 8.39753E-06
1.06647E+07 8.39753E-06
1.07902E+07 8.38197E-06
1.08807E+07 8.37074E-06
1.09946E+07 8.35662E-06
1.10000E+07 8.35595E-06
1.12714E+07 8.47508E-06
1.14723E+07 8.56326E-06
1.15000E+07 8.57542E-06
1.15871E+07 8.59683E-06
1.15871E+07 8.59683E-06
1.16571E+07 8.61403E-06
1.16572E+07 8.61405E-06
1.18490E+07 8.66120E-06
1.19395E+07 8.68344E-06
1.20000E+07 8.69831E-06
1.20743E+07 8.75485E-06
1.21199E+07 8.78955E-06
1.21200E+07 8.78961E-06
1.22586E+07 8.89510E-06
1.25000E+07 9.07880E-06
1.26593E+07 9.19018E-06
1.27670E+07 9.26549E-06
1.27671E+07 9.26552E-06
1.28770E+07 9.34240E-06
1.30000E+07 9.42840E-06
1.30451E+07 9.46101E-06
1.30709E+07 9.47966E-06
1.30709E+07 9.47968E-06
1.30817E+07 9.48747E-06
1.31323E+07 9.52405E-06
1.31324E+07 9.52409E-06
1.32016E+07 9.57416E-06
1.32655E+07 9.62036E-06
1.32668E+07 9.62130E-06
1.32668E+07 9.62132E-06
1.33837E+07 9.70582E-06
1.33838E+07 9.70585E-06
1.34028E+07 9.71963E-06
1.34028E+07 9.71964E-06
1.35000E+07 9.78990E-06
1.36352E+07 1.00174E-05
1.36353E+07 1.00175E-05
1.40000E+07 1.06313E-05
1.40084E+07 1.54108E-05
1.41206E+07 7.92514E-05
1.41269E+07 8.28361E-05
1.42607E+07 0.000158967
1.43101E+07 0.000187075
1.44502E+07 0.000266790
1.45000E+07 0.000295126
1.46226E+07 0.000305136
1.48274E+07 0.000321857
1.50000E+07 0.000335949
1.52261E+07 0.000340685
1.55000E+07 0.000346422
1.55215E+07 0.000346872
1.56732E+07 0.000350050
1.60000E+07 0.000356895
1.64945E+07 0.000378113
1.64946E+07 0.000378116
1.65000E+07 0.000378349
1.70000E+07 0.000399803
1.73882E+07 0.000418986
1.74440E+07 0.000421744
1.75000E+07 0.000424511
1.75216E+07 0.000425578
1.76018E+07 0.000429542
1.76358E+07 0.000431222
1.80000E+07 0.000449219
1.80867E+07 0.000453213
1.81734E+07 0.000457208
1.82980E+07 0.000462949
1.85000E+07 0.000472255
1.87934E+07 0.000485773
1.88388E+07 0.000487864
1.88917E+07 0.000490301
1.90000E+07 0.000495291
1.90489E+07 0.000497123
1.91373E+07 0.000500434
1.93186E+07 0.000507225
1.94288E+07 0.000511353
1.94412E+07 0.000511817
1.95000E+07 0.000514020
1.96233E+07 0.000518638
2.00000E+07 0.000532748
2.01263E+07 0.000534567
2.10000E+07 0.000547148
2.20000E+07 0.000552010
2.25235E+07 0.000551701
2.30000E+07 0.000551419
2.40000E+07 0.000544245
2.50000E+07 0.000523158
2.52913E+07 0.000519164
2.54824E+07 0.000516545
2.55027E+07 0.000516266
2.57263E+07 0.000513201
2.57623E+07 0.000512707
2.60000E+07 0.000509449
2.63054E+07 0.000502046
2.70000E+07 0.000485209
2.72733E+07 0.000473128
2.80000E+07 0.000441003
2.90000E+07 0.000408016
3.00000E+07 0.000365962
3.00000E+07 0.00000
3.10000E+07 0.00000
3.20000E+07 0.00000
3.30000E+07 0.00000
3.40000E+07 0.00000
3.50000E+07 0.00000
3.60000E+07 0.00000
3.70000E+07 0.00000
3.80000E+07 0.00000
3.90000E+07 0.00000
4.00000E+07 0.00000
4.10000E+07 0.00000
4.20000E+07 0.00000
4.30000E+07 0.00000
4.40000E+07 0.00000
4.50000E+07 0.00000
4.60000E+07 0.00000
4.70000E+07 0.00000
4.80000E+07 0.00000
4.90000E+07 0.00000
5.00000E+07 0.00000
5.10000E+07 0.00000
5.20000E+07 0.00000
5.30000E+07 0.00000
5.40000E+07 0.00000
5.50000E+07 0.00000
5.60000E+07 0.00000
5.70000E+07 0.00000
5.80000E+07 0.00000
5.90000E+07 0.00000
6.00000E+07 0.00000
6.10000E+07 0.00000
6.20000E+07 0.00000
6.30000E+07 0.00000
6.40000E+07 0.00000
6.50000E+07 0.00000
6.60000E+07 0.00000
6.70000E+07 0.00000
6.80000E+07 0.00000
6.90000E+07 0.00000
7.00000E+07 0.00000
7.10000E+07 0.00000
7.20000E+07 0.00000
7.30000E+07 0.00000
7.40000E+07 0.00000
7.50000E+07 0.00000
7.60000E+07 0.00000
7.70000E+07 0.00000
7.80000E+07 0.00000
7.90000E+07 0.00000
8.00000E+07 0.00000
8.10000E+07 0.00000
8.20000E+07 0.00000
8.30000E+07 0.00000
8.40000E+07 0.00000
8.50000E+07 0.00000
8.60000E+07 0.00000
8.70000E+07 0.00000
8.80000E+07 0.00000
8.90000E+07 0.00000
9.00000E+07 0.00000
9.10000E+07 0.00000
9.20000E+07 0.00000
9.30000E+07 0.00000
9.40000E+07 0.00000
9.50000E+07 0.00000
9.60000E+07 0.00000
9.70000E+07 0.00000
9.80000E+07 0.00000
9.90000E+07 0.00000
1.00000E+08 0.00000
1.02000E+08 0.00000
1.04000E+08 0.00000
1.06000E+08 0.00000
1.08000E+08 0.00000
1.10000E+08 0.00000
1.12000E+08 0.00000
1.14000E+08 0.00000
1.16000E+08 0.00000
1.18000E+08 0.00000
1.20000E+08 0.00000
1.22000E+08 0.00000
1.24000E+08 0.00000
1.26000E+08 0.00000
1.28000E+08 0.00000
1.30000E+08 0.00000
1.32000E+08 0.00000
1.34000E+08 0.00000
1.36000E+08 0.00000
1.38000E+08 0.00000
1.40000E+08 0.00000
1.42000E+08 0.00000
1.44000E+08 0.00000
1.46000E+08 0.00000
1.48000E+08 0.00000
1.50000E+08 0.00000
1.52000E+08 0.00000
1.54000E+08 0.00000
1.56000E+08 0.00000
1.58000E+08 0.00000
1.60000E+08 0.00000
1.62000E+08 0.00000
1.64000E+08 0.00000
1.66000E+08 0.00000
1.68000E+08 0.00000
1.70000E+08 0.00000
1.72000E+08 0.00000
1.74000E+08 0.00000
1.76000E+08 0.00000
1.78000E+08 0.00000
1.80000E+08 0.00000
1.82000E+08 0.00000
1.84000E+08 0.00000
1.86000E+08 0.00000
1.88000E+08 0.00000
1.90000E+08 0.00000
1.92000E+08 0.00000
1.94000E+08 0.00000
1.96000E+08 0.00000
1.98000E+08 0.00000
2.00000E+08 0.00000