S-32(n,tot) ENDF/B-VII.1
Energy(eV) XS(b)
1.00000E-05 27.5376
1.25000E-05 24.7329
1.50000E-05 22.6625
2.00000E-05 19.7563
2.75000E-05 16.9911
3.50000E-05 15.1712
4.25000E-05 13.8574
5.00000E-05 12.8517
6.25000E-05 11.5973
7.50000E-05 10.6714
0.000100000 9.37175
0.000125000 8.48480
0.000150000 7.83008
0.000200000 6.91107
0.000275000 6.03663
0.000350000 5.46114
0.000425000 5.04569
0.000500000 4.72764
0.000625000 4.33098
0.000750000 4.03818
0.00100000 3.62719
0.00125000 3.34671
0.00150000 3.13967
0.00200000 2.84905
0.00275000 2.57253
0.00350000 2.39055
0.00425000 2.25917
0.00500000 2.15859
0.00625000 2.03316
0.00750000 1.94057
0.0100000 1.81060
0.0125000 1.72190
0.0150000 1.65643
0.0200000 1.56453
0.0253000 1.49865
0.0314750 1.44402
0.0376500 1.40344
0.0500000 1.34619
0.0625000 1.30652
0.0750000 1.27724
0.100000 1.23614
0.125000 1.20809
0.150000 1.18739
0.200000 1.15832
0.275000 1.13067
0.350000 1.11247
0.500000 1.08927
0.750000 1.06746
1.00000 1.05446
1.50000 1.03903
2.00000 1.02984
2.75000 1.02108
3.50000 1.01531
5.00000 1.00795
7.50000 1.00102
10.0000 0.996869
15.0000 0.991918
20.0000 0.988938
27.5000 0.986063
35.0000 0.984135
50.0000 0.981602
75.0000 0.979070
100.000 0.977421
150.000 0.975190
200.000 0.973589
275.000 0.971701
350.000 0.970122
500.000 0.967407
750.000 0.963476
1000.00 0.959890
1500.00 0.953223
2000.00 0.946946
2750.00 0.937985
3500.00 0.929404
5000.00 0.913007
7500.00 0.887017
10000.0 0.861812
15000.0 0.811659
20000.0 0.760114
25173.9 0.705330
26467.3 0.692747
27760.8 0.684287
28407.5 0.686109
28730.9 0.691841
29054.2 0.705607
29377.6 0.739516
29539.3 0.775055
29701.0 0.840796
29781.8 0.896175
29862.7 0.980107
29943.5 1.11555
30024.3 1.35401
30105.2 1.83137
30145.6 2.27194
30186.0 3.00742
30226.4 4.36715
30246.7 5.52206
30266.9 7.28928
30287.1 10.1674
30307.3 15.2367
30327.5 25.0264
30337.6 33.3234
30347.7 45.2421
30363.9 72.3066
30380.0 90.4207
30396.2 72.2978
30412.3 45.3135
30424.7 31.2648
30437.1 22.2862
30449.5 16.5053
30461.9 12.6713
30486.7 8.15472
30511.5 5.74279
30536.2 4.31912
30561.0 3.41426
30610.6 2.37557
30660.2 1.82638
30709.7 1.50164
30759.3 1.29385
30808.9 1.15285
30908.0 0.979037
31007.2 0.879735
31106.3 0.817451
31205.4 0.775624
31403.7 0.724167
31602.0 0.694337
31998.6 0.661403
32395.1 0.643067
32791.7 0.630623
33584.8 0.612905
35171.0 0.586593
36757.3 0.563321
39929.8 0.517724
41516.0 0.494512
42309.1 0.482760
42705.7 0.476935
42904.0 0.474398
43003.1 0.474668
43052.7 0.480859
43077.5 0.507310
43083.7 0.534090
43089.9 0.607187
43093.0 0.703834
43096.1 0.955948
43097.6 1.26986
43099.2 2.01991
43100.0 2.86464
43100.7 4.57710
43101.1 6.20161
43101.5 8.82827
43101.9 13.6087
43102.3 22.3040
43102.6 35.3353
43103.0 44.1930
43103.4 35.3356
43103.7 22.3046
43104.0 16.6032
43104.2 12.6706
43104.6 7.84345
43105.1 5.31361
43105.5 3.86599
43106.4 2.38584
43107.3 1.69242
43109.1 1.08896
43110.9 0.842254
43114.5 0.647206
43118.1 0.573307
43132.5 0.497389
43161.3 0.476866
43218.9 0.470817
43334.1 0.467760
43564.4 0.463935
44025.1 0.456833
44946.5 0.442639
45867.8 0.428294
46328.5 0.421125
46558.8 0.417817
46674.0 0.417328
46731.6 0.421688
46760.4 0.441655
46774.8 0.517958
46778.4 0.592074
46782.0 0.786232
46783.8 1.02923
46785.6 1.61417
46786.5 2.27306
46787.4 3.64239
46787.8 4.94196
46788.3 7.13772
46788.7 11.1229
46789.2 18.4817
46789.6 29.3146
46790.0 36.5923
46790.4 29.3153
46790.8 18.4828
46791.2 11.7445
46791.6 7.89740
46792.4 4.22850
46793.2 2.66780
46794.0 1.89843
46795.5 1.18951
46797.1 0.889274
46800.2 0.643439
46803.4 0.548603
46815.9 0.449339
46841.0 0.422216
46891.1 0.414470
46991.4 0.411099
47192.0 0.407448
47593.1 0.400905
48395.4 0.387910
50000.0 0.361552
55650.8 0.264789
61301.5 0.164861
66952.3 0.0717277
69777.6 0.0349046
71190.3 0.0213088
71896.7 0.0161772
72603.0 0.0123827
73309.4 0.0101246
74015.7 0.00963076
74722.0 0.0111617
75428.4 0.0150156
76134.7 0.0215347
76841.1 0.0311120
77547.4 0.0442002
78253.8 0.0613211
79666.4 0.110169
81079.1 0.183724
82491.8 0.290194
83904.5 0.440771
85317.2 0.650856
86729.9 0.941796
88142.6 1.34338
89555.3 1.89731
90967.9 2.66191
92380.6 3.71773
93793.3 5.17351
95206.0 7.17368
96323.7 9.31674
96882.5 10.9074
97022.2 11.5839
97161.9 12.7708
97231.8 13.9085
97301.6 16.1129
97336.5 18.1563
97371.5 21.6087
97406.4 27.9862
97441.3 40.4807
97470.7 57.4784
97500.0 68.4303
97529.4 56.6109
97558.7 39.5335
97577.8 31.8391
97596.9 26.6016
97635.0 20.5913
97673.2 17.6009
97711.3 15.9760
97787.6 14.4536
97863.9 13.8664
98169.0 13.7386
98779.4 15.1306
100000 18.5530
102710 24.9098
104585 26.1318
106460 24.7299
110210 19.7978
111056 20.3294
111267 21.3219
111478 23.4630
111690 28.3898
111795 33.1359
111901 40.6434
112041 55.4728
112180 65.6507
112320 55.8963
112459 41.0090
112587 31.9801
112714 26.5834
112970 21.1288
113225 18.5923
113480 17.1576
114502 14.5477
116544 12.2188
120629 9.52634
124714 7.85104
128799 6.71549
132883 5.90395
136968 5.29914
141053 4.83108
143096 4.63034
144117 4.52777
144627 4.45838
144755 4.43024
144883 4.38489
144947 4.34508
145010 4.27188
145042 4.20271
145074 4.07117
145090 3.94587
145106 3.71367
145114 3.50032
145122 3.12675
145126 2.81531
145130 2.34363
145134 1.68941
145136 1.65360
145137 2.23580
145138 3.98642
145139 9.24948
145140 16.7820
145141 19.6494
145142 17.2559
145144 12.6652
145146 10.1570
145148 8.68075
145149 7.82278
145153 6.81252
145157 6.27324
145164 5.68849
145171 5.39084
145186 5.08505
145201 4.93009
145230 4.77318
145260 4.69332
145318 4.61100
145377 4.56746
145495 4.51926
145612 4.49054
146083 4.42478
147024 4.33954
148905 4.20015
152668 3.96335
156432 3.75773
158313 3.65160
159254 3.57246
159489 3.53728
159724 3.47757
159842 3.42358
159901 3.38239
159960 3.32268
160018 3.22702
160048 3.15318
160077 3.04621
160107 2.87698
160136 2.56882
160151 2.29692
160165 1.84673
160173 1.49744
160180 1.03710
160187 0.613761
160191 0.904053
160193 1.58369
160195 3.12033
160196 5.34528
160197 8.51101
160200 16.5202
160201 19.0974
160203 19.4424
160205 16.9356
160208 13.4751
160211 11.1443
160215 9.55060
160218 8.49667
160224 7.16015
160230 6.37881
160236 5.87228
160242 5.51923
160254 5.06157
160266 4.77887
160279 4.58729
160303 4.34450
160327 4.19706
160352 4.09793
160401 3.97279
160449 3.89668
160498 3.84519
160596 3.77927
160693 3.73810
160791 3.70933
160986 3.67044
161377 3.62385
161767 3.59300
163328 3.51059
166451 3.38991
169574 3.28573
171136 3.23182
171917 3.19268
172112 3.17570
172307 3.14719
172405 3.12150
172502 3.07330
172551 3.02716
172600 2.93842
172624 2.85327
172649 2.69214
172661 2.54219
172673 2.27279
172679 2.04001
172685 1.66734
172691 1.05908
172694 0.849672
172696 1.16934
172697 2.82259
172699 6.86397
172700 13.2908
172701 15.3454
172701 15.6047
172703 13.6692
172704 10.7794
172706 8.78318
172709 6.74532
172713 5.73205
172716 5.17088
172723 4.55225
172729 4.23069
172743 3.89429
172756 3.72439
172783 3.55182
172809 3.46499
172863 3.37696
172916 3.33217
173023 3.28591
173129 3.26143
173342 3.23421
173556 3.21792
174409 3.18040
176115 3.13214
179527 3.05708
186351 2.96000
189764 2.95602
193176 3.03520
194882 3.15435
196588 3.41148
197441 3.64874
198294 4.03075
199147 4.68271
200000 5.87661
200550 7.19068
201100 9.21931
201865 13.4095
202630 16.2855
203395 13.5457
204160 9.45387
205049 6.54665
205939 5.05297
206828 4.23919
207717 3.75697
209496 3.23988
211274 2.97918
213053 2.82499
214831 2.72275
218388 2.59204
225502 2.44318
232616 2.34502
239730 2.26545
246844 2.19412
250401 2.15967
253958 2.12481
257515 2.08563
259293 2.05389
259738 2.03874
260182 2.01190
260405 1.98687
260627 1.93907
260738 1.89302
260849 1.80479
260905 1.72086
260961 1.56480
260988 1.42325
261016 1.17882
261030 0.978949
261044 0.684344
261058 0.297305
261065 0.270373
261068 0.547092
261072 1.38079
261076 4.07693
261080 8.46223
261082 9.91866
261084 10.3039
261088 9.17566
261093 7.39747
261098 6.13369
261108 4.72871
261118 4.01326
261128 3.59265
261148 3.12582
261168 2.87759
261208 2.61875
261247 2.48599
261327 2.35117
261406 2.28301
261565 2.21405
261723 2.17914
262041 2.14358
262358 2.12538
263628 2.09855
264898 2.09724
266168 2.11778
267438 2.18182
268073 2.24931
268708 2.36655
269343 2.58247
269978 3.01687
270296 3.40335
270613 4.00438
270931 4.96895
271248 6.52858
271664 9.70683
272080 12.2014
272496 10.5985
272912 7.65958
273378 5.49243
273844 4.30792
274310 3.63417
274775 3.22274
275241 2.95434
275707 2.76953
276639 2.53727
277571 2.40115
278502 2.31423
280366 2.21750
282229 2.18796
283161 2.20325
284092 2.25665
285024 2.39259
285490 2.52746
285956 2.75554
286422 3.16885
286887 3.99675
287120 4.73814
287353 5.90522
287586 7.81474
287819 10.9783
288100 16.8604
288380 21.1734
288661 17.7897
288941 12.1604
289256 8.10582
289572 5.93543
289887 4.72252
290202 3.99290
290518 3.52354
290833 3.20431
291463 2.80928
292094 2.58121
292725 2.43578
293986 2.26341
295247 2.16475
296508 2.09976
299030 2.01542
301552 1.95780
304075 1.91012
306597 1.85957
307228 1.84201
307858 1.81598
308173 1.79454
308489 1.75657
308646 1.72146
308804 1.65551
308883 1.59329
308962 1.47753
309001 1.37181
309040 1.18672
309060 1.03212
309080 0.796215
309099 0.451221
309109 0.362017
309114 0.528617
309119 1.17924
309125 3.25573
309130 6.63505
309133 7.81563
309136 8.12969
309141 7.30963
309147 5.99532
309153 5.05186
309166 3.95962
309178 3.39590
309191 3.06223
309216 2.69127
309241 2.49252
309291 2.28401
309341 2.17673
309441 2.06689
309540 2.01072
309740 1.95267
309940 1.92203
310339 1.88808
310739 1.86742
311538 1.83486
311937 1.80877
312137 1.77112
312237 1.70470
312287 1.58529
312312 1.38448
312325 1.10084
312331 0.825977
312337 1.32317
312339 2.88210
312340 5.36371
312342 6.48171
312343 5.87578
312347 3.99102
312352 3.19116
312360 2.59438
312377 2.23140
312411 2.03573
312480 1.93423
312617 1.88112
312890 1.85087
313437 1.82904
314531 1.80579
316719 1.77064
318907 1.73447
319454 1.72278
320001 1.70666
320275 1.69417
320548 1.67291
320685 1.65362
320822 1.61744
320890 1.58289
320958 1.51701
320992 1.45439
321027 1.33777
321061 1.04730
321078 0.667729
321086 0.355665
321091 0.301542
321095 1.07896
321098 3.08843
321100 6.32364
321103 7.75681
321105 6.96252
321111 4.73660
321117 3.69401
321129 2.84911
321141 2.50246
321153 2.31672
321177 2.12269
321201 2.02345
321249 1.92217
321297 1.87082
321394 1.81842
321490 1.79152
321682 1.76328
321874 1.74788
322259 1.72992
322643 1.71840
324182 1.68819
327258 1.64085
333411 1.54367
339564 1.42379
341103 1.38598
342641 1.34006
343410 1.31027
343795 1.29160
344179 1.26814
344564 1.23540
344948 1.18053
345141 1.13207
345333 1.04483
345429 0.966099
345525 0.828076
345573 0.711197
345621 0.529009
345670 0.246249
345694 0.163788
345706 0.321517
345718 1.01767
345723 1.76672
345729 2.90099
345740 5.84244
345746 6.78353
345751 6.97222
345763 6.11644
345777 4.77674
345792 3.88386
345806 3.31607
345821 2.94012
345850 2.47915
345879 2.21498
345937 1.92644
345996 1.77353
346054 1.67866
346112 1.61413
346229 1.53131
346345 1.47991
346462 1.44442
346695 1.39743
346928 1.36649
347161 1.34356
347627 1.30960
348559 1.26075
349491 1.21999
350423 1.18034
351355 1.13742
351821 1.11211
352287 1.07933
352520 1.05574
352753 1.01837
352869 0.986498
352986 0.930060
353044 0.879289
353102 0.789708
353161 0.588869
353190 0.384090
353204 0.311281
353212 0.440163
353219 1.10228
353224 2.65089
353230 4.92472
353236 5.66941
353241 4.89345
353251 3.54205
353260 2.78834
353279 2.09960
353298 1.79573
353317 1.62852
353355 1.45116
353393 1.35909
353468 1.26379
353544 1.21413
353696 1.16110
353847 1.13134
354150 1.09509
354453 1.07036
355058 1.03199
355664 0.998556
358086 0.868712
360508 0.723884
362931 0.555707
365353 0.364126
367775 0.171282
368987 0.101273
369592 0.0848155
370198 0.0896149
370803 0.125984
371409 0.208499
372015 0.357349
372620 0.599474
373111 0.887589
373603 1.27929
374585 2.44102
376550 5.88125
377531 7.16607
378021 7.43962
378267 7.37104
378328 7.28030
378389 7.09303
378420 6.91674
378450 6.61304
378481 6.02915
378496 5.71129
378504 6.06991
378508 6.93687
378512 9.19276
378516 14.7896
378520 22.3732
378524 24.1912
378528 20.9844
378532 17.9257
378536 15.7246
378544 13.0972
378551 11.6933
378559 10.8511
378574 9.90714
378589 9.40607
378620 8.88681
378650 8.62359
378711 8.35968
378772 8.22719
379016 8.01231
379504 7.80315
380480 7.33826
381290 6.90269
381695 6.68583
381897 6.57943
381998 6.52666
382049 6.49992
382074 6.48557
382087 6.47643
382093 6.46854
382099 6.45195
382100 6.55803
382101 6.58124
382105 6.48768
382110 6.47804
382119 6.46941
382138 6.45797
382175 6.43816
382249 6.40024
382397 6.32610
382694 6.18207
383288 5.91086
384476 5.43600
386851 4.71852
389226 4.22121
391601 3.86323
393976 3.59475
396351 3.38462
398726 3.20759
399320 3.16277
399914 3.11070
400211 3.07637
400508 3.02487
400656 2.98198
400805 2.90567
400879 2.83517
400953 2.70362
400990 2.58112
401027 2.35808
401046 2.15989
401064 1.83008
401083 1.20038
401092 0.725418
401097 0.577617
401102 0.938239
401106 2.75247
401110 6.51831
401114 8.92900
401118 8.68144
401129 6.47954
401140 5.34951
401151 4.76086
401162 4.40971
401184 4.01425
401206 3.80051
401250 3.57408
401293 3.45596
401380 3.33284
401468 3.26817
401642 3.19862
401817 3.15944
402166 3.11195
402515 3.08025
403214 3.03348
403912 2.99591
406706 2.87711
408103 2.82661
409500 2.77837
410897 2.72740
411595 2.69924
411770 2.69687
411944 2.71412
412031 2.75295
412119 2.87537
412162 3.03627
412206 3.40790
412228 3.79162
412250 4.48051
412272 5.83006
412293 8.63636
412312 12.7470
412330 15.9242
412348 13.8307
412367 10.0030
412380 8.00893
412393 6.66294
412406 5.74932
412419 5.11506
412446 4.32848
412472 3.88237
412498 3.60500
412524 3.42169
412577 3.19954
412629 3.07338
412682 2.99402
412786 2.90121
412996 2.81635
413206 2.77618
413626 2.73477
414045 2.71076
414884 2.67859
415724 2.65411
417402 2.61346
419080 2.57791
422437 2.51223
423276 2.49458
424115 2.47319
424535 2.45848
424954 2.43556
425164 2.41592
425374 2.38009
425479 2.34628
425584 2.28164
425636 2.21959
425689 2.10203
425715 1.99202
425741 1.79238
425767 1.32878
425780 0.803386
425787 0.436070
425793 0.645154
425797 2.14603
425800 5.34082
425803 7.37997
425807 7.16877
425815 5.36429
425823 4.40423
425840 3.60317
425856 3.26532
425873 3.08153
425906 2.88761
425939 2.78678
426005 2.68301
426071 2.62990
426203 2.57527
426335 2.54686
426599 2.51647
426863 2.49943
427391 2.47883
427920 2.46507
430033 2.42804
434259 2.37404
442712 2.28693
446938 2.24700
451164 2.20408
453277 2.17747
454334 2.16071
455390 2.13921
456447 2.10818
456975 2.08554
457503 2.05353
458032 2.00315
458296 1.96455
458560 1.90874
458824 1.82014
458956 1.75274
459088 1.65698
459220 1.51015
459286 1.40336
459352 1.25911
459418 1.05527
459484 0.755861
459550 0.332967
459583 0.158876
459600 0.180424
459616 0.410134
459630 0.892844
459643 1.79500
459670 4.76268
459683 6.05526
459697 6.70379
459724 6.54817
459771 5.31299
459794 4.83712
459817 4.46803
459864 3.95195
459911 3.61727
459958 3.38598
460005 3.21770
460098 2.99052
460192 2.84495
460285 2.74401
460473 2.61362
460660 2.53339
460847 2.47956
461221 2.41395
461596 2.38149
461970 2.38155
462158 2.40826
462251 2.43907
462345 2.49598
462438 2.61156
462485 2.71772
462532 2.89292
462579 3.21067
462602 3.47533
462626 3.87274
462649 4.50391
462672 5.57754
462696 7.54930
462719 11.3477
462740 16.6971
462760 20.1448
462781 16.4282
462801 11.0479
462819 7.91138
462837 6.05155
462856 4.92955
462874 4.22423
462910 3.43012
462946 3.02799
462983 2.79807
463019 2.65584
463092 2.49637
463164 2.41369
463237 2.36535
463382 2.31322
463673 2.27023
463963 2.25103
464545 2.23068
465126 2.21793
466288 2.19983
467451 2.18611
469776 2.16463
472101 2.14726
476751 2.11844
481401 2.09377
490700 2.05064
500000 2.01131
506658 1.98155
508323 1.97225
509987 1.95977
510820 1.95035
511652 1.93459
512068 1.92043
512484 1.89388
512692 1.86845
512900 1.81948
513004 1.77230
513108 1.68263
513160 1.59860
513212 1.44596
513264 1.09094
513290 0.686200
513303 0.396308
513316 0.462581
513323 1.47047
513330 3.75045
513337 5.31286
513344 5.25496
513363 3.92320
513382 3.25212
513420 2.71022
513459 2.48609
513497 2.36500
513573 2.23775
513650 2.17175
513803 2.10402
513956 2.06934
514263 2.03377
514569 2.01530
515182 1.99564
515795 1.98468
517021 1.97147
518246 1.96261
520697 1.94912
523149 1.93740
525600 1.92559
528051 1.91169
529277 1.90227
530502 1.88776
531115 1.87540
531728 1.85294
532034 1.83175
532341 1.79113
532494 1.75199
532647 1.67705
532724 1.60605
532800 1.47474
532839 1.35650
532877 1.15433
532915 0.750296
532935 0.407323
532954 0.385514
532962 1.35830
532970 3.58526
532978 5.14109
532986 5.11052
533007 3.91658
533028 3.26141
533049 2.91392
533070 2.70483
533113 2.46827
533155 2.33955
533239 2.20325
533323 2.13233
533491 2.05926
533659 2.02182
533995 1.98339
534332 1.96347
535004 1.94236
535677 1.93068
537022 1.91683
538367 1.90775
541057 1.89445
543748 1.88361
554509 1.84680
559889 1.82985
565270 1.81367
570650 1.79851
573341 1.78898
574686 1.77554
575022 1.76668
575358 1.74882
575527 1.73094
575695 1.69552
575863 1.59367
575947 1.41095
575989 1.12054
576031 0.383172
576036 1.23359
576040 3.19305
576045 4.60462
576049 4.61625
576068 3.16595
576088 2.63356
576126 2.26256
576203 2.04566
576281 1.96876
576358 1.92958
576512 1.89015
576667 1.87060
576975 1.85174
577284 1.84328
578519 1.83844
579754 1.85254
580989 1.88590
582224 1.95655
582841 2.02037
583459 2.12168
584076 2.29289
584385 2.42460
584694 2.60677
585002 2.86469
585311 3.23483
585465 3.47528
585620 3.75914
585774 4.11671
585851 4.39599
585928 4.95978
586004 6.35687
586080 9.03988
586156 11.2508
586232 12.0664
586236 12.0940
586246 12.1544
586256 12.2122
586276 12.3243
586317 12.5609
586397 13.1614
586558 14.8065
586880 16.8057
587524 8.83909
587751 6.72739
587977 5.34325
588203 4.42976
588430 3.81069
588883 3.06422
589336 2.65528
589788 2.40914
590241 2.24998
591147 2.06316
592053 1.96111
592958 1.89854
594770 1.82716
596581 1.78758
598393 1.76183
602015 1.72831
605638 1.70523
609261 1.68692
616507 1.65899
623752 1.64632
627375 1.65271
630998 1.67863
634621 1.74728
636432 1.81459
638244 1.92461
640055 2.11231
641867 2.45423
643678 3.13794
644584 3.73815
645037 4.12858
645263 4.31031
645376 4.31776
645433 4.17462
645461 3.92038
645489 3.56809
645495 4.22239
645500 5.79700
645505 6.95430
645511 6.98752
645532 5.91994
645553 5.52095
645596 5.27357
645681 5.21449
645850 5.37872
646190 5.92898
646870 7.47111
648055 11.4158
649240 14.1859
650425 11.5568
651610 7.67073
652506 5.69700
653402 4.42804
654298 3.60257
655193 3.04613
656985 2.37104
658777 1.98810
660568 1.74073
662360 1.55962
664152 1.39905
664600 1.35172
665047 1.28865
665271 1.24146
665495 1.16503
665607 1.10038
665719 0.991312
665831 0.762935
665887 0.542008
665915 0.421006
665943 0.514762
665962 1.13739
665980 2.48745
665998 3.37822
666017 3.31261
666053 2.69590
