Cl-37(n,g) ENDF/B-VII.1
Energy(eV) XS(b)
1.00000E-05 21.7782
1.25000E-05 19.4790
1.50000E-05 17.7818
2.00000E-05 15.3995
2.75000E-05 13.1327
3.50000E-05 11.6409
4.25000E-05 10.5639
5.00000E-05 9.73946
6.25000E-05 8.71124
7.50000E-05 7.95223
0.000100000 6.88683
0.000125000 6.15977
0.000150000 5.62307
0.000200000 4.86972
0.000275000 4.15291
0.000350000 3.68116
0.000425000 3.34060
0.000500000 3.07988
0.000625000 2.75472
0.000750000 2.51471
0.00100000 2.17780
0.00125000 1.94788
0.00150000 1.77816
0.00200000 1.53993
0.00275000 1.31326
0.00350000 1.16408
0.00425000 1.05638
0.00500000 0.973937
0.00625000 0.871115
0.00750000 0.795214
0.0100000 0.688675
0.0125000 0.615968
0.0150000 0.562299
0.0200000 0.486964
0.0253000 0.432962
0.0314750 0.388174
0.0376500 0.354916
0.0500000 0.307978
0.0625000 0.275462
0.0750000 0.251460
0.100000 0.217768
0.125000 0.194775
0.150000 0.177803
0.200000 0.153978
0.275000 0.131308
0.350000 0.116388
0.500000 0.0973694
0.750000 0.0794919
1.00000 0.0688333
1.50000 0.0561881
2.00000 0.0486482
2.75000 0.0414718
3.50000 0.0367470
5.00000 0.0307218
7.50000 0.0250533
10.0000 0.0216701
15.0000 0.0176505
20.0000 0.0152490
27.5000 0.0129583
35.0000 0.0114463
50.0000 0.00951189
75.0000 0.00768322
100.000 0.00658672
150.000 0.00527907
200.000 0.00449675
275.000 0.00375284
350.000 0.00326588
500.000 0.00265343
750.000 0.00209489
1000.00 0.00177536
1500.00 0.00141539
2000.00 0.00121342
2750.00 0.00103285
3500.00 0.000923742
4250.00 0.000855439
5000.00 0.000819146
5820.35 0.000825341
6230.53 0.000861472
6640.70 0.000946651
6845.79 0.00102509
7050.88 0.00114904
7255.96 0.00135596
7461.05 0.00173250
7563.59 0.00204632
7666.14 0.00251878
7768.68 0.00327651
7819.95 0.00383952
7871.23 0.00460339
7922.50 0.00567605
7973.77 0.00724857
8025.04 0.00968560
8076.31 0.0137533
8101.95 0.0168897
8127.59 0.0212845
8153.22 0.0276981
8178.86 0.0375454
8204.49 0.0536690
8230.13 0.0823129
8242.95 0.105378
8255.77 0.138400
8268.58 0.186561
8281.40 0.256576
8301.10 0.409730
8320.80 0.512915
8340.55 0.411177
8360.30 0.256924
8373.11 0.186510
8385.92 0.138108
8411.54 0.0818282
8437.16 0.0531558
8462.78 0.0370546
8488.40 0.0272419
8514.02 0.0208637
8565.26 0.0133932
8616.50 0.00937157
8667.74 0.00696929
8718.99 0.00542322
8770.23 0.00437107
8872.71 0.00307303
8975.19 0.00233370
9077.67 0.00187314
9180.15 0.00156690
9385.11 0.00119734
9590.08 0.000990681
9795.04 0.000862915
10000.0 0.000777933
10312.5 0.000693521
10625.0 0.000639213
11250.0 0.000573980
11875.0 0.000535965
12500.0 0.000510668
13750.0 0.000478474
15000.0 0.000459238
16250.0 0.000448430
17500.0 0.000445630
18750.0 0.000453289
20000.0 0.000478621
21313.3 0.000546589
21969.9 0.000616309
22626.5 0.000740120
23283.1 0.000985278
23611.4 0.00120700
23939.8 0.00156813
24268.1 0.00221098
24432.2 0.00273617
24596.4 0.00350933
24760.5 0.00470411
24924.7 0.00665795
25088.9 0.0100481
25253.0 0.0161095
25416.0 0.0255287
25579.0 0.0319390
25742.5 0.0256963
25906.0 0.0161386
26025.7 0.0113198
26145.4 0.00817219
26265.1 0.00611296
26384.8 0.00472939
26624.2 0.00308169
26863.6 0.00219414
27103.1 0.00167146
27342.5 0.00135035
27581.9 0.00120833
27641.7 0.00125059
27701.6 0.00145464
27731.5 0.00177123
27746.5 0.00209273
27761.4 0.00267835
27776.4 0.00390721
27783.9 0.00509586
27791.4 0.00718527
27798.8 0.0113704
27802.6 0.0152423
27806.3 0.0217296
27810.1 0.0338016
27811.9 0.0441316
27813.8 0.0600644
27815.7 0.0863127
27817.5 0.133350
27819.4 0.226656
27820.3 0.308306
27821.3 0.426942
27822.7 0.684080
27824.1 0.855033
27825.5 0.683913
27826.9 0.428345
27828.0 0.294942
27829.0 0.209779
27830.1 0.154150
27831.2 0.117426
27833.3 0.0737774
27835.4 0.0504725
27837.5 0.0366218
27839.7 0.0278120
27843.9 0.0177206
27848.2 0.0123745
27852.4 0.00922489
27860.9 0.00584845
27869.4 0.00417164
27877.9 0.00322069
27894.9 0.00223430
27912.0 0.00175749
27929.0 0.00148925
27963.0 0.00120962
28031.0 0.000986657
28099.1 0.000889778
28371.3 0.000728406
28915.6 0.000585820
29460.0 0.000505261
30004.3 0.000453153
31093.0 0.000394159
31637.4 0.000391051
31773.5 0.000404297
31909.5 0.000449658
31977.6 0.000515610
32011.6 0.000581771
32045.6 0.000701977
32079.7 0.000954605
32096.7 0.00120041
32113.7 0.00163567
32130.7 0.00251840
32139.2 0.00334706
32147.7 0.00475535
32156.2 0.00744263
32160.5 0.00979827
32164.7 0.0135272
32169.0 0.0199231
32173.2 0.0320330
32175.3 0.0424825
32177.5 0.0583473
32179.6 0.0835160
32181.7 0.123359
32184.4 0.197364
32187.0 0.246537
32189.7 0.197194
32192.3 0.123465
32194.8 0.0783207
32197.3 0.0522036
32199.8 0.0366916
32202.3 0.0270025
32207.2 0.0162488
32212.2 0.0108417
32217.2 0.00776316
32222.1 0.00586022
32232.0 0.00372982
32242.0 0.00262939
32251.9 0.00198960
32261.8 0.00158537
32271.8 0.00131410
32291.6 0.000983362
32311.5 0.000797335
32351.2 0.000606205
32390.9 0.000514743
32430.6 0.000463788
32510.0 0.000411468
32668.8 0.000371290
32827.6 0.000354996
33463.0 0.000330948
34733.6 0.000311106
37274.8 0.000291375
39816.0 0.000285973
41086.7 0.000290825
41722.0 0.000297558
42039.6 0.000305228
42198.4 0.000320969
42277.9 0.000374517
42317.6 0.000582051
42337.4 0.00139648
42347.3 0.00455518
42352.3 0.0164049
42354.8 0.0581331
42356.0 0.187964
42356.6 0.510854
42357.0 1.07957
42357.3 3.03294
42357.5 6.07504
42357.8 3.03339
42358.1 1.24913
42358.3 0.648624
42358.8 0.258362
42359.8 0.0840757
42361.8 0.0243161
42365.8 0.00674085
42373.8 0.00197068
42389.8 0.000730362
42421.9 0.000414710
42485.9 0.000336221
42614.1 0.000319238
42870.3 0.000321537
43382.9 0.000341174
43895.4 0.000375573
44407.9 0.000437448
44920.4 0.000562594
45176.7 0.000678621
45433.0 0.000872894
45689.2 0.00123353
45817.4 0.00154117
45945.5 0.00201414
46073.6 0.00278987
46137.7 0.00337433
46201.7 0.00417118
46265.8 0.00528622
46329.9 0.00688612
46393.9 0.00922717
46458.0 0.0126441
46555.5 0.0200849
46653.0 0.0252130
46702.0 0.0238422
46751.0 0.0203446
46849.0 0.0127947
46947.5 0.00792406
47045.9 0.00521039
47144.4 0.00365414
47242.9 0.00270688
47341.4 0.00209623
47439.8 0.00168277
47636.8 0.00117842
47833.7 0.000895938
48030.6 0.000722655
48424.5 0.000530498
48818.4 0.000432186
49212.3 0.000375374
49606.1 0.000339766
50000.0 0.000316282
50773.0 0.000291918
50966.2 0.000291255
51159.5 0.000298554
51352.7 0.000355158
51449.3 0.000588428
51473.5 0.000826512
51497.6 0.00148880
51509.7 0.00238464
51521.8 0.00480892
51527.8 0.00797313
51530.9 0.0109613
51533.9 0.0160847
51536.9 0.0259663
51538.4 0.0347492
51539.9 0.0488448
51541.4 0.0734351
51542.9 0.121543
51543.7 0.164652
51544.5 0.231686
51545.2 0.341746
51546.0 0.525181
51546.8 0.839336
51547.7 1.04963
51548.5 0.841618
51549.4 0.526973
51550.2 0.319400
51551.1 0.205318
51552.0 0.140547
51552.9 0.101393
51553.8 0.0762715
51554.6 0.0593206
51556.4 0.0387964
51558.1 0.0272558
51559.9 0.0202265
51563.4 0.0124142
51570.4 0.00611641
51577.4 0.00369440
51591.5 0.00185574
51605.5 0.00118096
51633.6 0.000683883
51661.7 0.000505543
51774.0 0.000329544
51998.7 0.000283282
52223.3 0.000273944
52448.0 0.000270784
52897.3 0.000271119
53346.6 0.000278751
53795.9 0.000298912
54020.6 0.000318626
54245.2 0.000351630
54469.9 0.000411414
54694.6 0.000534552
54806.9 0.000651253
54919.2 0.000852273
55031.5 0.00125222
55087.7 0.00167632
55115.8 0.00225053
55129.8 0.00355324
55136.8 0.00699671
55140.4 0.0144583
55142.1 0.0256883
55143.0 0.0369566
55143.9 0.0554789
55144.9 0.0876945
55145.9 0.109434
55146.9 0.0880854
55147.9 0.0558139
55148.8 0.0365512
55149.7 0.0253037
55151.5 0.0142080
55155.1 0.00701593
55162.3 0.00387495
55176.8 0.00298640
55205.7 0.00322523
55234.5 0.00395361
55263.4 0.00508678
55292.3 0.00683942
55321.2 0.00966173
55350.1 0.0144326
55379.0 0.0226682
55409.8 0.0361532
55440.5 0.0452166
55471.2 0.0363046
55501.9 0.0228100
55523.8 0.0161458
55545.6 0.0117262
55567.5 0.00879522
55589.3 0.00680339
55633.1 0.00440143
55676.8 0.00308869
55720.5 0.00230282
55764.2 0.00179818
55851.7 0.00121381
55939.1 0.000902269
56026.5 0.000717182
56201.4 0.000517685
56376.3 0.000418055
56551.2 0.000361143
56900.9 0.000301636
57250.6 0.000272456
57600.4 0.000255764
58299.9 0.000237883
58999.4 0.000228567
59698.9 0.000222810
61097.9 0.000216013
62496.9 0.000212608
63895.8 0.000213149
64595.3 0.000217396
64945.1 0.000222374
65294.8 0.000231865
65644.6 0.000252122
65819.5 0.000271712
65994.3 0.000305897
66169.2 0.000373567
66256.6 0.000435614
66344.1 0.000539251
66431.5 0.000733893
66475.2 0.000904712
66518.9 0.00117997
66562.7 0.00167715
66584.5 0.00210100
66606.4 0.00276911
66628.2 0.00394169
66639.2 0.00491066
66650.1 0.00638083
66661.0 0.00879275
66672.0 0.0131937
66677.4 0.0168982
66682.9 0.0224799
66688.4 0.0312935
66693.8 0.0456888
66706.8 0.105643
66710.1 0.109319
66713.3 0.100324
66719.8 0.0673679
66722.7 0.0548241
66725.6 0.0449150
66728.5 0.0373226
66731.3 0.0315784
66737.1 0.0238686
66742.9 0.0193789
66748.6 0.0167723
66754.4 0.0153679
66765.9 0.0148866
66777.4 0.0168146
66788.9 0.0214238
66800.4 0.0300698
66811.9 0.0450504
66824.7 0.0683889
66831.0 0.0769213
66837.4 0.0775188
66850.2 0.0577696
66862.9 0.0359813
66872.4 0.0254088
66881.8 0.0185087
66891.3 0.0139495
66900.7 0.0108478
66919.6 0.00707734
66938.5 0.00499260
66957.4 0.00372800
66976.3 0.00290645
67014.1 0.00193965
67051.8 0.00141368
67089.6 0.00109581
67165.2 0.000746457
67240.8 0.000568208
67316.4 0.000464893
67391.9 0.000399577
67467.5 0.000355624
67618.7 0.000301867
67769.8 0.000271405
68072.1 0.000239768
68374.4 0.000224355
68676.7 0.000215580
69281.3 0.000206215
69885.9 0.000201324
70490.5 0.000198251
71699.7 0.000194372
74118.0 0.000189778
76536.4 0.000186703
81373.2 0.000183360
83791.5 0.000183988
85000.7 0.000185897
85605.3 0.000188868
85907.6 0.000196463
86058.8 0.000223891
86134.3 0.000330881
86172.1 0.000749262
86191.0 0.00235310
86200.5 0.00825636
86205.2 0.0282037
86207.6 0.0856940
86208.7 0.211755
86209.3 0.400153
86209.9 0.901862
86210.6 1.80895
86211.3 0.905996
86212.1 0.314112
86212.9 0.147132
86214.5 0.0537506
86217.7 0.0166094
86224.1 0.00474076
86236.9 0.00138744
86262.5 0.000496280
86313.8 0.000266730
86416.4 0.000208795
86621.5 0.000194952
87031.7 0.000193296
87852.2 0.000198243
88672.7 0.000207899
89493.1 0.000225477
90313.6 0.000260905
90723.8 0.000293437
91134.1 0.000347209
91544.3 0.000444937
91749.4 0.000526433
91954.5 0.000648829
92159.7 0.000843116
92262.2 0.000984950
92364.8 0.00117295
92467.3 0.00142704
92569.9 0.00177654
92672.5 0.00226275
92775.0 0.00293493
92956.5 0.00459978
93138.0 0.00575939
93228.8 0.00546221
93319.5 0.00468749
93501.0 0.00299914
93638.5 0.00211730
93775.9 0.00154801
93913.4 0.00117974
94050.9 0.000934473
94325.8 0.000644968
94600.7 0.000490084
94875.6 0.000398671
95150.5 0.000340559
95700.4 0.000273951
96250.2 0.000238987
96800.1 0.000219210
97349.9 0.000212337
97624.8 0.000233785
97762.3 0.000336487
97831.0 0.000747201
97865.4 0.00233357
97882.6 0.00822165
97891.1 0.0285089
97895.4 0.0892744
97897.6 0.231041
97898.7 0.458710
97899.7 1.13771
97900.8 2.31993
97901.4 1.88246
97901.9 1.18143
97902.9 0.490898
97903.9 0.250147
97906.0 0.0974314
97910.1 0.0312306
97918.3 0.00899897
97934.7 0.00254132
97967.5 0.000799326
98033.0 0.000346312
98164.1 0.000229495
98426.4 0.000197492
98688.6 0.000189524
98950.9 0.000185381
99999.9 0.000176814
100000 2.08837E-05
100000 2.08832E-05
100000 2.08817E-05
100001 2.08808E-05
100001 2.08788E-05
100002 2.08744E-05
100004 2.08655E-05
100007 2.08478E-05
100014 2.08131E-05
100029 2.07435E-05
100057 2.06066E-05
100114 2.03386E-05
100229 1.98270E-05
100457 1.88909E-05
100914 1.73047E-05
101827 1.49530E-05
103654 1.22007E-05
107308 1.04984E-05
109135 1.10149E-05
110961 1.33838E-05
111875 1.66909E-05
112332 1.98858E-05
112788 2.55146E-05
113245 3.69166E-05
113473 4.76512E-05
113702 6.60275E-05
113930 0.000101499
114044 0.000133075
114158 0.000183806
114273 0.000272685
114387 0.000447651
114444 0.000604263
114501 0.000852988
114558 0.00126734
114615 0.00196961
114678 0.00314933
114740 0.00396232
114803 0.00319818
114865 0.00200854
114906 0.00146110
114946 0.00108488
115027 0.000646172
115108 0.000422468
115189 0.000296780
115271 0.000220157
115352 0.000170338
115514 0.000112005
115676 8.05880E-05
115838 6.18430E-05
116162 4.16515E-05
116487 3.16720E-05
116811 2.61084E-05
117460 2.06643E-05
118757 1.77324E-05
120054 1.84541E-05
121352 2.13867E-05
122649 2.73771E-05
123946 4.04079E-05
124595 5.46395E-05
124919 7.07453E-05
125001 7.97976E-05
125082 9.86097E-05
125122 0.000119609
125163 0.000167663
125183 0.000221436
125203 0.000334292
125213 0.000445673
125224 0.000639602
125234 0.00101468
125239 0.00133888
125244 0.00180286
125252 0.00287492
125259 0.00377386
125267 0.00321241
125275 0.00206933
125282 0.00136899
125289 0.000949504
125296 0.000696950
125303 0.000538458
125316 0.000363429
125330 0.000277605
125344 0.000230904
125358 0.000205164
125385 0.000187333
125413 0.000202841
125426 0.000227120
125440 0.000271307
125454 0.000355634
125461 0.000426772
125468 0.000531771
125475 0.000699397
125481 0.000980095
125488 0.00148044
125495 0.00237851
125502 0.00370546
125508 0.00444209
125515 0.00345674
125522 0.00218280
125530 0.00127042
125538 0.000816168
125546 0.000575013
125553 0.000436924
125569 0.000292177
125585 0.000224245
125617 0.000165004
125649 0.000141596
125713 0.000125468
125777 0.000122579
126031 0.000141694
126286 0.000183517
126541 0.000255266
126796 0.000387695
126924 0.000499616
127051 0.000670047
127179 0.000946851
127242 0.00115341
127306 0.00143311
127370 0.00182231
127434 0.00237614
127497 0.00318221
127561 0.00436027
127659 0.00704749
127757 0.00929667
127806 0.00906237
127855 0.00793010
127953 0.00520673
128017 0.00403877
128080 0.00358462
128112 0.00382094
128143 0.00488544
128159 0.00621794
128175 0.00893310
128183 0.0114240
128191 0.0153333
128199 0.0217915
128207 0.0326128
128216 0.0514007
128225 0.0640675
128234 0.0516668
128243 0.0328798
128250 0.0227946
128256 0.0164459
128263 0.0123077
128270 0.00960165
128284 0.00638045
128298 0.00464568
128312 0.00360773
128326 0.00293482
128354 0.00213610
128409 0.00139485
128465 0.00104601
128576 0.000699132
128687 0.000520013
128909 0.000333809
129131 0.000239745
129353 0.000185010
129576 0.000150563
130020 0.000112312
130464 9.43869E-05
130909 8.68106E-05
131797 8.99061E-05
132686 0.000114841
133130 0.000139371
133575 0.000178036
134019 0.000241700
134241 0.000289714
134463 0.000355778
134686 0.000451409
134908 0.000603738
135019 0.000725207
135130 0.000921130
135241 0.00133620
135297 0.00179708
135352 0.00273449
135434 0.00467529
135516 0.00296340
135553 0.00236979
135590 0.00204579
135676 0.00178861
135763 0.00180311
135935 0.00205949
136280 0.00241990
136455 0.00223973
136630 0.00188435
136980 0.00117467
137381 0.000685767
137782 0.000435396
138183 0.000300546
138584 0.000222716
138985 0.000175334
139386 0.000145784
140188 0.000118102
140989 0.000120987
141390 0.000136493
141791 0.000168710
142192 0.000233985
142393 0.000291077
142593 0.000379163
142794 0.000522993
142994 0.000775194
143195 0.00125749
143295 0.00166121
143395 0.00223592
143558 0.00355333
143721 0.00444349
143885 0.00360820
144048 0.00241365
144114 0.00214824
144179 0.00214018
144212 0.00234875
144245 0.00292184
144261 0.00350914
144277 0.00450646
144294 0.00630152
144310 0.00956143
144326 0.0146545
144342 0.0180966
144358 0.0146997
144374 0.00953001
144385 0.00703503
144396 0.00534748
144418 0.00341697
144440 0.00244011
144462 0.00188554
144506 0.00130577
144550 0.00101418
144638 0.000718737
144726 0.000563461
144902 0.000393001
145077 0.000297696
145429 0.000194008
145781 0.000140281
146132 0.000108765
146484 8.89599E-05
147187 6.78961E-05
147890 6.19803E-05
148242 6.48110E-05
148594 7.43072E-05
148945 9.81494E-05
149297 0.000164808
149473 0.000249306
149648 0.000453712
149736 0.000686354
149780 0.000882774
149824 0.00118180
149868 0.00167123
149912 0.00254528
149934 0.00326499
149956 0.00433033
149978 0.00598601
150000 0.00869050
150020 0.0127668
150039 0.0194914
150062 0.0312029
150084 0.0390387
150107 0.0312769
150130 0.0196019
150146 0.0136184
150163 0.00973255
150180 0.00720301
150197 0.00551830
150230 0.00351191
150264 0.00243722
150297 0.00180690
150331 0.00141720
150398 0.00101310
150465 0.000909304
150532 0.00116591
150565 0.00165521
150599 0.00304367
150616 0.00484858
150632 0.00928428
150641 0.0144515
150649 0.0256103
150653 0.0366633
150658 0.0562595
150662 0.0944848
150664 0.127171
150666 0.171862
150669 0.276733
150672 0.348494
150676 0.282365
150679 0.178967
150682 0.107975
150686 0.0699431
150689 0.0476419
150692 0.0345632
150699 0.0202521
150706 0.0133243
150719 0.00700597
150732 0.00434186
150759 0.00218545
150785 0.00134864
150892 0.000453928
151105 0.000178577
151530 8.00341E-05
151956 5.28881E-05
152382 4.08958E-05
153233 3.08777E-05
154084 2.79605E-05
154935 2.95580E-05
155361 3.28493E-05
155787 3.96408E-05
156212 5.46201E-05
156425 6.93514E-05
156638 9.54293E-05
156851 0.000148002
156957 0.000196909
157063 0.000279319
157170 0.000433998
157223 0.000567558
157276 0.000775503
157329 0.00112271
157383 0.00175767
157409 0.00228407
157436 0.00305876
157462 0.00422798
157489 0.00599590
157526 0.00957630
157563 0.0121055
157601 0.00980919
157638 0.00613823
157666 0.00423689
157694 0.00300907
157723 0.00221442
157751 0.00168648
157807 0.00106114
157863 0.000726131
157920 0.000528240
157976 0.000402376
158089 0.000258002
158201 0.000181751
158314 0.000136839
158539 8.88841E-05
158764 6.52899E-05
158990 5.20978E-05
159440 3.89693E-05
159891 3.33989E-05
160341 3.11811E-05
161242 3.21851E-05
162143 3.99797E-05
163044 6.29058E-05
163495 9.18578E-05
163945 0.000163552
164170 0.000249598
164283 0.000326082
164396 0.000449748
164508 0.000669526
164565 0.000849203
164621 0.00111464
164677 0.00152732
164733 0.00220893
164790 0.00340985
164846 0.00560526
164900 0.00896073
164954 0.0113370
165008 0.00921455
165062 0.00581399
165105 0.00397604
165147 0.00281271
165190 0.00207414
165232 0.00159055
165318 0.00103301
165403 0.000746901
165488 0.000589363
165573 0.000501949
165744 0.000449463
165914 0.000533172
165999 0.000652593
166084 0.000877581
166170 0.00133223
166212 0.00174482
166255 0.00241566
166297 0.00360382
166340 0.00598005
166361 0.00814241
166383 0.0116380
166404 0.0176124
166425 0.0280720
166469 0.0581114
166491 0.0479603
166513 0.0303068
166536 0.0178621
166560 0.0112668
166584 0.00762629
166608 0.00547223
166632 0.00410802
166656 0.00320393
166703 0.00212148
166751 0.00152921
166798 0.00117801
166894 0.000822018
166989 0.000713830
167084 0.000844831
167132 0.00110979
167180 0.00179175
167203 0.00255603
167227 0.00409039
167239 0.00548183
167251 0.00771261
167263 0.0114604
167275 0.0178353
167288 0.0281472
167301 0.0338323
167327 0.0163407
167338 0.0105894
167350 0.00720229
167362 0.00515936
167374 0.00386603
167397 0.00241084
167421 0.00166721
167468 0.000967858
167515 0.000661559
167609 0.000405083
167704 0.000303391
167892 0.000232452
168080 0.000230015
168269 0.000280169
168363 0.000335767
168457 0.000429182
168551 0.000592919
168646 0.000904134
168693 0.00116940
168740 0.00156871
