Ni-62(n,tot) ENDF/B-VII.1
Energy(eV) XS(b)
1.00000E-05 759.068
1.25000E-05 679.949
1.50000E-05 621.546
2.00000E-05 539.567
2.75000E-05 461.564
3.50000E-05 410.228
4.25000E-05 373.168
5.00000E-05 344.797
6.25000E-05 309.414
7.50000E-05 283.295
0.000100000 246.633
0.000125000 221.613
0.000150000 203.145
0.000200000 177.221
0.000275000 152.554
0.000350000 136.320
0.000425000 124.601
0.000500000 115.629
0.000625000 104.440
0.000750000 96.1803
0.00100000 84.5867
0.00125000 76.6748
0.00150000 70.8345
0.00200000 62.6366
0.00275000 54.8363
0.00350000 49.7028
0.00425000 45.9968
0.00500000 43.1596
0.00625000 39.6214
0.00750000 37.0095
0.0100000 33.3433
0.0125000 30.8414
0.0150000 28.9946
0.0200000 26.4022
0.0253000 24.5440
0.0314750 23.0028
0.0376500 21.8584
0.0500000 20.2433
0.0625000 19.1245
0.0750000 18.2987
0.100000 17.1395
0.125000 16.3486
0.150000 15.7647
0.200000 14.9453
0.275000 14.1659
0.350000 13.6531
0.500000 12.9999
0.750000 12.3868
1.00000 12.0220
1.50000 11.5907
2.00000 11.3351
2.75000 11.0937
3.50000 10.9367
5.00000 10.7404
7.50000 10.5634
10.0000 10.4650
15.0000 10.3625
20.0000 10.3155
27.5000 10.2901
35.0000 10.2916
50.0000 10.3325
75.0000 10.4507
100.000 10.5971
150.000 10.9302
200.000 11.2957
275.000 11.8878
350.000 12.5264
500.000 13.9419
750.000 16.7570
999.999 20.2717
1000.00 20.2717
1000.01 20.2718
1000.02 20.2719
1000.03 20.2722
1000.06 20.2727
1000.12 20.2736
1000.25 20.2755
1000.49 20.2794
1000.98 20.2871
1001.96 20.3024
1003.91 20.3332
1007.81 20.3949
1015.63 20.5190
1031.25 20.7699
1062.50 21.2827
1125.00 22.3543
1250.00 24.6971
1500.00 30.3309
2000.00 47.0974
2399.68 69.3051
2799.35 105.915
3199.03 168.711
3598.70 276.854
4000.00 440.221
4000.00 440.222
4000.01 440.224
4000.01 440.226
4000.02 440.229
4000.03 440.236
4000.07 440.251
4000.13 440.280
4000.27 440.338
4000.53 440.454
4001.06 440.686
4002.11 441.149
4004.22 442.076
4008.44 443.928
4016.88 447.625
4033.75 454.990
4067.50 469.548
4135.00 497.558
4270.00 545.527
4540.00 583.770
5000.00 469.352
5481.30 307.146
5909.85 211.436
6338.41 152.471
6766.96 115.295
7195.51 90.7692
7624.06 73.8427
8052.62 61.6871
8481.17 52.6573
8695.44 48.9861
8802.58 47.3204
8856.15 46.5266
8882.94 46.1423
8896.33 45.9663
8899.68 45.9350
8903.02 45.9332
8904.70 45.9715
8906.37 46.1148
8907.21 46.3188
8907.63 46.5150
8908.05 46.8507
8908.47 47.4926
8908.67 48.0524
8908.88 48.9322
8909.09 50.4281
8909.30 53.2007
8909.41 55.5504
8909.51 59.0270
8909.62 64.4226
8909.72 72.6587
8909.86 88.8357
8910.00 99.6496
8910.14 88.9025
8910.28 72.7395
8910.41 63.2166
8910.53 57.5751
8910.65 54.1226
8910.78 51.9487
8911.03 49.4881
8911.28 48.2313
8911.52 47.5052
8911.77 47.0512
8912.27 46.5375
8913.27 46.1060
8914.26 45.9287
8916.25 45.7748
8918.24 45.7000
8922.22 45.6090
8926.20 45.5405
8942.11 45.3054
8973.94 44.8632
9037.60 44.0079
9164.92 42.3864
9292.24 40.8742
9324.08 40.5132
9355.91 40.1622
9371.82 39.9944
9387.74 39.8445
9395.69 39.7927
9399.67 39.7847
9403.65 39.8061
9407.63 39.9007
9409.62 40.0152
9411.61 40.2382
9412.60 40.4303
9413.60 40.7243
9414.59 41.2011
9415.59 42.0404
9416.58 43.7150
9417.08 45.2484
9417.58 47.7855
9418.07 52.4234
9418.32 56.3093
9418.57 62.1438
9418.82 71.4892
9419.07 87.3940
9419.32 116.871
9419.57 173.733
9419.78 254.713
9420.00 308.535
9420.22 254.694
9420.44 174.206
9420.58 137.170
9420.72 111.890
9421.00 82.3504
9421.28 67.2823
9421.57 58.8075
9421.85 53.6344
9422.13 50.2660
9422.70 46.3106
9423.27 44.1728
9423.83 42.8900
9424.96 41.4923
9426.10 40.7848
9427.23 40.3751
9428.36 40.1145
9429.49 39.9368
9431.76 39.7122
9434.02 39.5760
9438.55 39.4131
9443.08 39.3104
9447.60 39.2320
9456.66 39.1054
9474.77 38.8923
9492.88 38.6953
9565.33 37.9494
9710.22 36.5495
10000.0 34.0294
10961.2 27.6542
11922.3 23.2882
13844.7 17.7786
15767.0 14.4931
16728.2 13.3098
17208.7 12.7976
17449.0 12.5584
17569.2 12.4438
17629.3 12.3937
17644.3 12.3875
17659.3 12.3970
17666.8 12.4237
17674.3 12.5123
17678.1 12.6396
17680.0 12.7655
17681.8 12.9885
17683.7 13.4434
17684.6 13.8689
17685.6 14.5783
17686.5 15.9231
17687.0 17.0847
17687.5 18.8922
17687.9 21.9044
17688.4 27.3888
17688.6 32.0254
17688.9 38.5202
17689.1 48.1467
17689.3 62.3913
17689.7 92.6223
17690.0 112.933
17690.3 92.9926
17690.7 62.8559
17691.0 45.6911
17691.3 35.4928
17691.5 29.0920
17691.8 24.9220
17692.4 20.0417
17692.9 17.5369
17693.5 16.0520
17694.1 15.1332
17695.2 14.0759
17696.3 13.5208
17697.5 13.1937
17699.7 12.8440
17702.0 12.6684
17704.2 12.5681
17708.7 12.4614
17717.8 12.3755
17726.8 12.3384
17744.8 12.2999
17762.9 12.2751
17798.9 12.2358
17835.0 12.2005
17907.2 12.1334
17979.4 12.0683
18268.0 11.8181
18845.3 11.3541
20000.0 10.5455
22229.8 9.31663
23344.7 8.82069
23902.2 8.59518
24180.9 8.48726
24320.2 8.43432
24389.9 8.40839
24424.8 8.39803
24442.2 8.40571
24450.9 8.46361
24453.1 8.52550
24455.2 8.69531
24456.3 8.91609
24457.4 9.47049
24458.0 10.1322
24458.5 11.5595
24458.8 12.9899
24459.1 15.5578
24459.3 20.6619
24459.5 25.3103
24459.6 31.9539
24459.8 46.4312
24460.0 55.8898
24460.2 46.7194
24460.4 32.3170
24460.6 22.4392
24460.9 17.1456
24461.1 14.2639
24461.3 12.5715
24461.8 10.7991
24462.2 9.94948
24463.2 9.19527
24464.1 8.88064
24465.9 8.62675
24467.8 8.52834
24475.1 8.42124
24489.8 8.38561
24519.1 8.36576
24577.9 8.34130
24695.4 8.29753
24930.3 8.21314
25400.2 8.05061
26340.0 7.74602
27279.9 7.46463
27749.8 7.33126
27984.7 7.26603
28102.2 7.23360
28160.9 7.21772
28190.3 7.21292
28205.0 7.22679
28212.3 7.30293
28214.2 7.38311
28216.0 7.60119
28216.9 7.88601
28217.8 8.60321
28218.3 9.45117
28218.8 11.3223
28219.0 13.2170
28219.2 16.6552
28219.4 23.5856
28219.6 29.3670
28219.7 37.7798
28219.8 56.3289
28220.0 68.8635
28220.2 56.7332
28220.3 38.2853
28220.5 28.0417
28220.6 22.0327
28220.9 15.5433
28221.1 12.4606
28221.4 10.7999
28221.9 9.18321
28222.4 8.45531
28223.5 7.83364
28224.5 7.58615
28226.6 7.38949
28228.7 7.31403
28237.1 7.23260
28253.8 7.20485
28287.2 7.18865
28354.0 7.16825
28487.6 7.13167
28754.9 7.06074
29022.1 6.99077
29155.8 6.95590
29222.6 6.94092
29256.0 6.94972
29264.3 6.96856
29272.7 7.02974
29276.9 7.11892
29281.0 7.37019
29283.1 7.70703
29284.2 8.03081
29285.2 8.58469
29286.3 9.67096
29286.8 10.6315
29287.3 12.1720
29287.8 14.8521
29288.4 20.0611
29288.6 24.6535
29288.9 31.8279
29289.1 43.5126
29289.4 63.2877
29289.7 97.8457
29290.0 120.742
29290.3 98.7077
29290.6 64.3716
29291.0 39.7650
29291.3 27.0922
29291.7 20.3348
29292.0 16.5049
29292.4 14.0355
29292.7 12.4429
29293.5 10.5037
29294.2 9.43526
29294.9 8.78575
29296.3 8.06957
29299.1 7.49134
29302.0 7.26616
29307.7 7.09073
29313.3 7.02318
29324.7 6.96920
29336.1 6.94671
29358.8 6.92545
29381.5 6.91353
29472.4 6.88344
29654.2 6.83545
30017.9 6.74505
30745.1 6.57039
31472.4 6.40065
31836.0 6.31690
32017.8 6.27490
32108.7 6.25357
32154.2 6.24364
32176.9 6.24587
32188.3 6.28293
32193.9 6.44900
32195.4 6.61600
32196.8 7.05659
32197.5 7.60517
32198.2 8.90147
32198.6 10.3483
32198.9 13.1541
32199.1 15.7664
32199.3 19.9940
32199.5 27.1987
32199.6 38.8375
32199.8 58.6899
32200.0 72.1666
32200.2 59.2697
32200.4 39.5625
32200.5 30.1181
32200.6 23.7376
32200.9 16.6623
32201.2 12.9406
32201.4 10.9418
32201.9 8.88340
32202.4 7.93184
32203.4 7.10793
32204.5 6.77250
32206.5 6.50160
32208.5 6.39632
32216.6 6.28192
32232.9 6.24446
32265.4 6.22634
32330.3 6.20785
32460.3 6.17695
32720.2 6.11759
33240.0 5.99996
33759.8 5.88199
34019.7 5.82232
34149.7 5.79188
34214.7 5.77635
34247.1 5.77075
34263.4 5.78262
34271.5 5.85557
34273.5 5.93401
34275.6 6.15113
34276.6 6.43717
34277.6 7.15090
34278.1 8.00146
34278.6 9.87939
34278.9 11.8287
34279.1 15.2233
34279.4 21.9521
34279.5 28.0759
34279.6 36.3530
34279.8 55.0075
34280.0 67.6941
34280.2 55.6078
34280.4 37.1035
34280.6 23.4141
34280.8 16.5660
34281.1 12.9361
34281.3 10.8404
34281.8 8.67644
34282.2 7.65081
34283.1 6.74634
34284.1 6.37014
34285.9 6.06624
34287.7 5.94795
34295.1 5.81840
34309.8 5.77644
34339.1 5.75736
34397.8 5.73948
34515.3 5.71058
34750.2 5.65504
35219.9 5.54311
36159.5 5.30824
37099.1 5.04843
37568.8 4.90355
37803.7 4.82573
37921.2 4.78676
37979.9 4.77837
37994.6 4.78826
38009.3 4.82886
38016.6 4.89126
38023.9 5.06891
38027.6 5.30381
38029.4 5.52534
38031.3 5.89834
38033.1 6.60329
38034.0 7.21134
38034.9 8.14160
38035.9 9.69481
38036.8 12.4901
38037.7 18.0524
38038.2 22.8922
38038.6 29.8107
38039.3 45.1713
38040.0 55.4202
38040.7 45.5149
38041.4 30.3513
38042.0 22.1240
38042.5 17.0100
38043.1 13.7369
38043.6 11.5716
38044.7 9.01205
38045.8 7.66156
38046.9 6.85753
38048.0 6.35038
38050.2 5.76508
38052.4 5.45182
38054.6 5.26590
38059.1 5.06304
38067.9 4.89968
38076.7 4.83438
38094.3 4.77937
38112.0 4.75413
38147.3 4.72629
38182.6 4.70736
38323.7 4.64753
38606.0 4.53331
39170.5 4.27805
39735.1 3.96458
40017.4 3.77580
40158.5 3.67062
40229.1 3.61466
40264.4 3.58590
40282.0 3.57390
40290.8 3.58229
40295.3 3.64713
40297.5 3.89435
40298.6 4.62142
40299.1 6.19225
40299.4 8.52777
40299.7 14.1784
40299.8 20.6891
40300.0 25.1450
40300.2 20.9658
40300.3 14.5242
40300.5 10.1809
40300.7 7.91195
40301.0 5.78111
40301.7 4.44357
40303.1 3.85289
40305.8 3.64682
40311.3 3.57843
40322.2 3.54953
40344.0 3.52452
40387.7 3.48430
40475.1 3.40447
40649.9 3.23256
40824.7 3.03939
40912.1 2.93300
40955.8 2.87734
40977.7 2.85357
40988.6 2.86762
40994.1 2.98290
40996.8 3.41433
40998.2 4.65920
40998.9 7.21909
40999.2 10.7270
40999.5 18.9363
40999.8 28.8302
41000.0 35.6139
41000.2 29.2804
41000.5 19.4987
41000.7 13.5890
41000.9 10.0892
41001.3 6.69760
41002.1 4.41019
41003.8 3.36287
41007.1 2.98574
41013.7 2.85894
41027.0 2.80449
41053.6 2.75613
41106.7 2.67656
41212.9 2.51414
41425.4 2.14542
41637.8 1.70160
41850.2 1.16799
42062.7 0.557992
42168.9 0.263329
42222.0 0.140850
42248.6 0.0918766
42275.1 0.0547273
42301.7 0.0330397
42328.2 0.0315245
42354.8 0.0562236
42381.3 0.114927
42407.9 0.217829
42434.5 0.378107
42461.0 0.613296
42487.6 0.946202
42514.1 1.40759
42540.7 2.03773
42567.2 2.89133
42593.8 4.04004
42646.9 7.63690
42700.0 13.9646
42742.5 22.0088
42785.0 33.2005
42870.0 57.6772
42912.5 62.8574
42955.0 61.2853
43040.0 49.1763
43095.0 41.3836
43150.0 35.1533
43260.0 26.6845
43369.9 21.5670
43479.9 18.2717
43589.9 16.0146
43699.9 14.3884
43919.8 12.2215
44139.7 10.8534
44359.7 9.91427
44579.6 9.22946
44689.6 8.95130
44744.6 8.82439
44772.1 8.76656
44785.8 8.75841
44792.7 8.84632
44796.2 9.23639
44797.0 9.60490
44797.9 10.5028
44798.3 11.5163
44798.7 13.6105
44799.2 18.8546
44799.4 24.4931
44799.6 35.0187
44799.8 50.9519
44800.0 62.2197
44800.2 51.6696
44800.4 35.9090
44800.6 27.6702
44800.7 22.1602
44801.1 16.2412
44801.7 11.9905
44802.3 10.5178
44803.0 9.86418
44805.5 9.06848
44810.6 8.80421
44820.7 8.70530
44841.0 8.63945
44881.7 8.55134
44962.9 8.39850
45125.4 8.13099
45450.4 7.69947
46100.3 7.09366
46750.3 6.68115
47400.2 6.37592
48700.1 5.94022
50000.0 5.62957
51549.8 5.34368
52324.7 5.22176
52712.2 5.16440
52905.9 5.13618
53002.7 5.12171
53051.2 5.11390
53075.4 5.11072
53087.5 5.11782
53093.5 5.16418
53096.6 5.35106
53098.1 5.93787
53098.8 7.32648
53099.2 9.54465
53099.6 15.7908
53100.0 26.9878
53100.4 16.3066
53100.6 11.5987
53100.9 9.20374
53101.3 7.10995
53102.3 5.87984
53104.1 5.37003
53107.8 5.19394
53115.2 5.13690
53130.1 5.11659
53159.7 5.10606
53219.0 5.09535
53337.6 5.07800
53574.8 5.04541
54049.2 4.98268
54523.6 4.92207
54998.0 4.86314
55472.4 4.80574
55709.6 4.77789
55946.8 4.75138
56184.0 4.72892
56302.6 4.72209
56421.2 4.72347
56480.5 4.73083
56539.8 4.74730
56599.1 4.78120
56658.4 4.85238
56688.0 4.91639
56717.7 5.01704
56747.3 5.18440
56777.0 5.48585
56806.6 6.09762
56821.4 6.66335
56836.3 7.60095
56851.1 9.30566
56858.5 10.7203
56865.9 12.8297
56873.3 16.1365
56880.7 21.6358
56888.1 31.3700
56895.5 49.1869
56902.8 76.8829
56910.0 96.1327
56917.2 78.7479
56924.5 51.5352
56930.5 36.1298
56936.5 26.5779
56942.6 20.5864
56948.6 16.6835
56960.7 12.1666
56972.7 9.78627
56984.8 8.38949
56996.8 7.50206
57021.0 6.47976
57045.1 5.93342
57069.2 5.60597
57093.3 5.39299
57117.4 5.24587
57165.7 5.05935
57213.9 4.94816
57262.2 4.87510
57310.4 4.82354
57406.9 4.75510
57503.4 4.71070
57599.9 4.67846
57696.4 4.65311
57889.3 4.61362
58082.3 4.58207
58468.3 4.52964
58854.2 4.48380
59240.2 4.44113
60012.1 4.36064
61555.8 4.20871
62327.7 4.13488
62713.7 4.09792
62906.7 4.07881
63003.2 4.06801
63051.4 4.06071
63075.5 4.05556
63087.6 4.05873
63093.6 4.10300
63096.6 4.30906
63098.1 5.01299
63098.9 6.76498
63099.3 9.79382
63099.5 13.1923
63099.6 19.2704
63099.8 28.9755
63100.0 35.5753
63100.2 29.8457
63100.4 20.3673
63100.7 11.2486
63101.0 7.92364
63101.7 5.67628
63103.0 4.64333
63105.7 4.26130
63111.0 4.13250
63121.7 4.08802
63142.9 4.07018
63185.5 4.05984
63270.7 4.04909
63441.0 4.03186
63781.6 3.99939
64462.8 3.93549
65825.1 3.80803
68549.9 3.54826
71274.7 3.27171
72637.1 3.12094
73318.2 3.03977
73658.8 2.99630
73829.1 2.97215
73914.3 2.95693
73956.9 2.94585
73978.2 2.94305
73988.8 2.98192
73994.1 3.19451
73996.8 3.97235
73998.1 6.06351
73998.8 9.96419
73999.1 14.5876
73999.4 23.7648
73999.7 37.1824
74000.0 46.2786
74000.3 38.0585
74000.6 25.4683
74001.0 14.8191
74001.4 10.0354
74002.1 6.24854
74003.7 4.20944
74006.9 3.39296
74013.1 3.10874
74025.7 3.01090
74050.8 2.97302
74101.0 2.95277
74201.5 2.93344
74402.3 2.90313
74804.1 2.84329
75607.6 2.70289
76009.3 2.60826
76210.2 2.54691
76411.1 2.46748
76611.9 2.35329
76712.4 2.27125
76812.8 2.15773
76863.0 2.08173
76913.3 1.98559
76963.5 1.85932
77013.7 1.68532
77038.8 1.57093
77063.9 1.42998
77089.0 1.25284
77114.1 1.02646
77139.2 0.738060
77164.3 0.412698
77176.9 0.312624
77183.2 0.334024
77189.5 0.466484
77195.7 0.817642
77198.9 1.13671
77202.0 1.60555
77205.1 2.29296
77208.3 3.29275
77211.4 4.73831
77214.6 6.79718
77218.4 10.4834
77222.3 15.5842
77230.0 26.6738
77233.9 28.9657
77237.7 28.1652
77245.5 22.5310
77254.6 16.5216
77263.8 12.7565
77273.0 10.4124
77282.2 8.87701
77291.3 7.81264
77300.5 7.04147
77318.9 6.00889
77337.2 5.35564
77355.5 4.90849
77392.2 4.33835
77428.9 3.99121
77465.6 3.75778
77502.3 3.58976
77539.0 3.46271
77612.4 3.28240
77685.8 3.15941
77759.2 3.06907
77832.5 2.99907
77979.3 2.89548
78126.1 2.82000
78272.9 2.76011
78346.2 2.73331
78382.9 2.71952
78401.3 2.71230
78410.5 2.71457
78415.0 2.75072
78417.3 2.90490
78418.5 3.37914
78419.1 4.38889
78419.6 9.20073
78420.0 16.2371
78420.4 9.74830
78420.8 5.21510
78421.3 3.92376
78422.2 3.19117
78424.0 2.88041
78427.7 2.76942
78435.0 2.72987
78449.6 2.71213
78478.9 2.69826
78537.4 2.67926
78654.4 2.64682
78888.5 2.58994
79356.6 2.49222
80292.8 2.32232
82165.2 1.99856
84037.6 1.65141
85910.0 1.26145
87782.5 0.825266
89654.9 0.397470
90123.0 0.320698
90591.1 0.279248
91059.2 0.300292
91293.2 0.348124
91527.3 0.432265
91761.4 0.565249
91995.4 0.764300
92229.5 1.05328
92463.5 1.46536
92697.6 2.04655
92931.6 2.86006
93165.7 3.99016
93282.7 4.70596
93341.2 5.10701
93370.5 5.31788
93385.1 5.42483
93392.4 5.48172
93396.1 5.53550
93397.9 5.67014
93398.8 6.05904
93399.3 6.91993
93399.7 11.2950
93400.0 17.6786
93400.3 11.9301
93400.7 7.66339
93401.1 6.55283
93401.9 5.95159
93403.4 5.71490
93406.5 5.64929
93412.7 5.66611
93425.2 5.75239
93450.0 5.94846
93528.1 6.61953
93606.3 7.35892
93762.5 9.04756
94075.0 13.2241
94700.0 21.5885
95012.5 22.7723
95325.0 21.4671
95950.0 16.0357
96456.2 12.1215
96962.5 9.24663
97468.7 7.16201
97975.0 5.60568
98987.4 3.42859
99999.9 1.96034
100000 1.96010
100001 1.95950
100001 1.95901
100002 1.95805
100003 1.95613
100007 1.95229
100013 1.94462
100026 1.92923
100052 1.89866
100103 1.83853
100206 1.72185
100412 1.50278
100825 1.12504
101237 0.839379
101649 0.671290
102061 0.663733
102473 0.884094
102885 1.43128
103092 1.86521
103195 2.12676
103246 2.28687
103259 2.35428
103272 2.49579
103278 2.67061
103285 3.10943
103288 3.63786
103291 4.82029
103293 6.02436
103294 8.20681
103296 12.5726
103297 16.3855
103298 22.2682
103299 35.5436
103300 44.5618
103301 37.5075
103302 24.7731
103304 15.6653
103305 10.7209
103307 8.07316
103308 6.53106
103311 4.92038
103314 4.16450
103320 3.46007
103326 3.17060
103338 2.94403
103350 2.87281
103368 2.85578
103386 2.87982
103422 2.97243
103494 3.22244
103638 3.83310
103925 5.39579
104500 9.97852
105650 22.9783
106225 27.5904
106800 29.0962
107950 26.3234
108962 22.5286
109974 19.3696
110986 16.9677
111492 15.9948
111619 15.7700
111745 15.5503
111872 15.3305
111935 15.2171
111967 15.1872
111974 15.2169
111982 15.3454
111986 15.5447
111990 16.0624
111992 16.6936
111994 18.0614
111995 19.3932
111996 21.6786
111997 25.8743
111998 33.0143
111999 45.2766
112000 53.3810
112001 47.2306
112002 35.5209
112003 29.4680
112003 25.1644
112004 22.4661
112005 20.7099
112007 18.6758
112008 17.5987
112011 16.5530
112015 16.0851
112021 15.6538
112027 15.4676
112040 15.2961
112053 15.2122
112078 15.1175
112103 15.0545
112154 14.9558
112205 14.8701
112306 14.7123
112408 14.5632
112814 14.0133
113626 13.0690
115249 11.6196
116873 10.5601
117279 10.3375
117685 10.1276
118091 9.92515
118294 9.81913
118396 9.75951
118446 9.75278
118459 9.78644
118472 9.91667
118478 10.1134
118484 10.6291
118488 11.2535
118491 12.5414
118492 13.8123
118494 15.9762
118495 19.9080
118497 26.8784
118499 38.4811
118500 46.6183
118502 40.5473
118503 29.4970
118504 23.8409
118505 19.8857
118507 17.3146
118508 15.7126
118510 13.6645
118512 12.5309
118517 11.3739
118522 10.8444
118531 10.3635
118540 10.1556
118559 9.97115
118577 9.88786
118614 9.80636
118651 9.76187
118725 9.70456
118799 9.66161
118948 9.58927
119096 9.52406
119392 9.40261
119688 9.28841
120874 8.87860
123245 8.21824
127986 7.28742
130357 6.93982
132728 6.63975
133913 6.50144
135099 6.36602
135691 6.29683
136284 6.22385
136580 6.18586
136877 6.15381
137025 6.15437
137099 6.17102
137173 6.21734
137247 6.34042
137284 6.47198
137321 6.71055
137358 7.18706
137377 7.60991
137395 8.27580
137414 9.38821
137432 11.3894
137451 15.3145
137460 18.6863
137469 23.5099
137485 35.3273
137500 44.2656
137515 37.9404
137531 26.8778
137545 19.7028
137560 15.4444
137575 12.8708
137589 11.2356
137618 9.37811
137647 8.41036
137677 7.83801
137706 7.47170
137764 7.03964
137822 6.79983
137881 6.65032
137939 6.54877
137997 6.47539
138114 6.37587
138231 6.31061
138347 6.26336
138464 6.22666
138697 6.17102
138930 6.12838
139397 6.06112
139863 6.00513
140330 5.95439
141263 5.85991
142196 5.76825
143129 5.67423
143595 5.62430
144062 5.57000
144295 5.53957
144528 5.50419
144645 5.48248
144762 5.45481
144878 5.41713
144937 5.43267
144951 5.48868
144966 5.67978
144973 5.94535
144980 6.59754
144984 7.32047
144988 8.66837
144989 9.81457
144991 11.5293
144993 14.1572
144995 18.1945
144997 27.0102
145000 33.8744
145003 29.3785
145005 21.1550
145007 16.4337
145009 13.3836
145012 11.4074
145014 10.1371
145018 8.53158
145022 7.67107
145030 6.79263
145038 6.38062
145055 6.00163
145071 5.83268
145104 5.68103
145137 5.61173
145203 5.54468
145269 5.50939
145401 5.46682
145533 5.43666
146061 5.33795
