Rb-85(n,tot) ENDF/B-VII.1
Energy(eV) XS(b)
1.00000E-05 31.0711
1.25000E-05 28.4510
1.50000E-05 26.5169
2.00000E-05 23.8020
2.75000E-05 21.2189
3.50000E-05 19.5188
4.25000E-05 18.2915
5.00000E-05 17.3520
6.25000E-05 16.1802
7.50000E-05 15.3153
0.000100000 14.1011
0.000125000 13.2726
0.000150000 12.6610
0.000200000 11.8024
0.000275000 10.9856
0.000350000 10.4480
0.000425000 10.0599
0.000500000 9.76275
0.000625000 9.39221
0.000750000 9.11869
0.00100000 8.73475
0.00125000 8.47273
0.00150000 8.27933
0.00200000 8.00784
0.00275000 7.74952
0.00350000 7.57951
0.00425000 7.45678
0.00500000 7.36283
0.00625000 7.24565
0.00750000 7.15915
0.0100000 7.03774
0.0125000 6.95488
0.0150000 6.89371
0.0200000 6.80785
0.0253000 6.74630
0.0314750 6.69525
0.0376500 6.65734
0.0500000 6.60383
0.0625000 6.56675
0.0750000 6.53937
0.100000 6.50093
0.125000 6.47468
0.150000 6.45529
0.200000 6.42804
0.275000 6.40206
0.350000 6.38491
0.500000 6.36294
0.750000 6.34208
1.00000 6.32943
1.50000 6.31401
2.00000 6.30441
2.75000 6.29471
3.50000 6.28781
5.00000 6.27788
7.50000 6.26630
10.0000 6.25731
15.0000 6.24241
20.0000 6.22929
27.5000 6.21100
35.0000 6.19347
50.0000 6.15922
75.0000 6.10228
100.000 6.04390
137.735 5.95045
156.602 5.90069
161.319 5.88853
166.035 5.87830
168.394 5.87610
169.573 5.87733
170.752 5.88241
171.931 5.89710
172.521 5.91323
173.111 5.94354
173.405 5.96919
173.700 6.00808
173.995 6.07069
174.290 6.18032
174.585 6.39770
174.732 6.59619
174.879 6.92374
175.027 7.51897
175.101 8.01570
175.174 8.76250
175.248 9.94953
175.322 11.9685
175.395 15.6706
175.469 22.7854
175.535 33.0199
175.600 39.8738
175.666 33.0288
175.731 22.7964
175.779 17.6996
175.826 14.3609
175.873 12.1639
175.921 10.6796
176.016 8.90007
176.110 7.93286
176.205 7.35586
176.300 6.98621
176.490 6.55901
176.679 6.33167
176.869 6.19667
177.248 6.05104
177.627 5.97806
178.006 5.93609
178.386 5.90954
178.765 5.89151
179.523 5.86884
180.282 5.85515
181.798 5.83880
183.315 5.82842
184.832 5.82039
187.866 5.80707
193.933 5.78316
200.000 5.75882
205.768 5.73373
211.535 5.70582
214.419 5.69105
217.303 5.67821
218.744 5.67631
219.465 5.67931
220.186 5.68902
220.907 5.71538
221.268 5.74363
221.628 5.79563
221.989 5.90328
222.169 6.00454
222.349 6.17592
222.529 6.49830
222.620 6.77626
222.710 7.20802
222.800 7.92584
222.890 9.22880
222.935 10.3015
222.980 11.8635
223.025 14.1996
223.070 17.6732
223.135 24.8697
223.200 29.6536
223.265 24.8742
223.330 17.6779
223.375 14.1968
223.420 11.8613
223.465 10.2963
223.510 9.22586
223.600 7.92113
223.691 7.20128
223.781 6.76745
223.871 6.48743
224.051 6.16116
224.231 5.98583
224.411 5.88072
224.772 5.76558
225.132 5.70620
225.493 5.67068
226.213 5.63002
227.655 5.59040
229.097 5.57227
229.817 5.57227
230.538 5.58475
231.259 5.62339
231.980 5.72354
232.340 5.82399
232.701 5.99306
233.061 6.29288
233.421 6.86852
233.782 8.11870
233.962 9.33762
234.142 11.4540
234.322 15.5293
234.413 19.0981
234.503 24.6902
234.593 34.0442
234.683 51.0522
234.773 85.2570
234.818 115.321
234.863 159.728
234.897 205.387
234.932 258.317
235.000 329.061
235.069 269.988
235.137 174.299
235.184 127.751
235.231 96.1153
235.278 74.5809
235.324 59.6746
235.418 41.2348
235.512 30.8772
235.605 24.5219
235.699 20.3572
235.886 15.4118
236.074 12.6870
236.261 11.0207
236.448 9.92173
236.636 9.15528
237.010 8.17638
237.385 7.59187
237.760 7.21088
238.134 6.94639
238.884 6.60802
239.633 6.40396
240.383 6.26890
241.132 6.17344
242.631 6.04783
244.129 5.96876
245.628 5.91403
247.127 5.87348
250.124 5.81624
253.121 5.77635
259.116 5.72055
265.111 5.67944
271.105 5.64497
283.095 5.58450
307.074 5.47132
331.053 5.35116
355.031 5.21340
379.010 5.04723
402.989 4.83636
414.979 4.70802
417.976 4.67500
420.973 4.64684
422.472 4.64094
423.221 4.64461
423.971 4.65921
424.720 4.70063
425.095 4.74549
425.469 4.82838
425.844 5.00041
426.031 5.16257
426.219 5.43757
426.406 5.95646
426.500 6.40565
426.593 7.10505
426.687 8.27505
426.781 10.4129
426.828 12.1888
426.874 14.7951
426.921 18.7216
426.968 24.6380
427.034 36.6923
427.100 44.7292
427.166 36.6953
427.232 24.6404
427.298 16.9369
427.363 12.6107
427.429 10.1115
427.495 8.58157
427.561 7.59077
427.626 6.91741
427.758 6.09239
427.889 5.62783
428.020 5.34142
428.283 5.02138
428.546 4.85541
428.809 4.75764
429.334 4.65101
429.860 4.59489
430.386 4.55984
431.437 4.51587
433.539 4.46184
435.641 4.41948
444.050 4.25567
452.459 4.06514
454.562 4.01410
456.664 3.97037
457.715 3.96250
458.241 3.97015
458.766 3.99687
459.292 4.06987
459.555 4.14726
459.817 4.28749
460.080 4.57007
460.212 4.82822
460.343 5.25126
460.474 6.00829
460.540 6.62876
460.606 7.54405
460.672 8.96073
460.737 11.2804
460.803 15.3064
460.869 22.4820
460.934 33.7102
461.000 41.1830
461.066 33.6872
461.132 22.4723
461.181 16.6741
461.231 12.9374
461.281 10.5101
461.330 8.89293
461.429 6.97508
461.529 5.94421
461.628 5.33294
461.727 4.94234
461.926 4.49041
462.125 4.24773
462.323 4.10107
462.720 3.93630
463.117 3.84604
463.515 3.78727
464.309 3.70894
465.898 3.60205
467.486 3.51346
469.075 3.44876
469.869 3.44910
470.664 3.52033
471.061 3.61746
471.458 3.80143
471.855 4.15486
472.252 4.87258
472.650 6.49578
472.848 8.11124
473.047 10.9441
473.245 16.4375
473.345 21.2549
473.444 28.7905
473.543 41.3319
473.593 50.8690
473.643 63.8995
473.692 82.2078
473.742 108.430
473.791 146.702
473.841 202.407
473.921 332.328
474.000 427.766
474.080 353.237
474.159 228.527
474.210 171.018
474.260 130.534
474.361 82.1123
474.462 56.5499
474.563 41.7890
474.664 32.5527
474.765 26.4143
474.967 18.9993
475.169 14.8445
475.370 12.2679
475.774 9.33909
476.178 7.77285
476.582 6.82152
476.986 6.19109
477.389 5.74607
478.197 5.16232
479.004 4.79653
480.619 4.35660
482.234 4.09049
483.849 3.90184
487.080 3.62841
493.540 3.23582
500.000 2.95338
503.235 2.89057
506.470 2.95933
509.705 3.32447
512.940 4.41500
514.558 5.56441
516.175 7.54176
517.793 11.0950
519.410 17.9461
520.219 23.8129
521.028 32.7074
521.836 46.8675
522.645 70.9049
523.454 115.481
523.858 152.938
524.263 209.138
524.667 297.634
525.071 444.962
525.476 704.921
525.880 1177.56
526.290 1950.08
526.700 2521.82
527.110 2086.63
527.520 1349.23
527.990 807.368
528.460 520.252
528.931 361.139
529.401 266.105
529.871 205.325
530.341 164.237
531.281 113.835
532.221 85.1657
533.162 67.2190
535.042 46.6659
536.923 35.6399
538.803 28.9991
539.744 26.6738
540.684 24.9461
541.154 24.4354
541.389 24.3705
541.624 24.5693
541.859 25.3327
541.977 26.1610
542.094 27.5998
542.212 30.2372
542.329 35.5256
542.388 40.2624
542.447 47.7063
542.506 59.9242
542.564 80.1498
542.632 115.399
542.700 138.881
542.768 115.216
542.836 79.7823
542.885 62.0804
542.934 50.4175
542.983 42.7156
543.032 37.4985
543.130 31.1823
543.228 27.6919
543.326 25.5610
543.424 24.1537
543.621 22.4310
543.817 21.4106
544.013 20.7191
544.405 19.7880
545.190 18.6082
545.975 17.7541
547.545 16.4283
549.115 15.3822
552.254 13.7894
555.394 12.6240
561.672 11.0308
567.951 9.99282
574.230 9.26141
580.509 8.71698
583.649 8.49536
586.788 8.30689
588.358 8.23284
589.143 8.20719
589.928 8.19834
590.712 8.22899
591.105 8.27930
591.497 8.38450
591.890 8.61833
592.086 8.84541
592.282 9.23646
592.478 9.98340
592.576 10.6356
592.675 11.6597
592.773 13.3865
592.871 16.5855
592.920 19.2731
592.969 23.2637
593.018 29.3780
593.067 38.7274
593.134 57.2245
593.200 69.5368
593.267 57.2059
593.333 38.7364
593.393 27.7844
593.453 21.2939
593.513 17.3675
593.573 14.8884
593.692 12.1034
593.812 10.6822
593.932 9.86548
594.051 9.35532
594.290 8.77634
594.530 8.47069
594.769 8.28762
595.248 8.08296
595.726 7.97102
596.205 7.89822
597.162 7.80215
598.119 7.73394
599.077 7.67759
600.991 7.58079
604.820 7.41319
608.649 7.26091
616.307 6.97635
623.965 6.69454
631.623 6.38345
635.451 6.20208
639.280 5.99273
641.195 5.87611
643.109 5.75440
645.024 5.63949
646.938 5.57314
647.896 5.59642
648.853 5.71227
649.810 6.02660
650.767 6.80399
651.246 7.56526
651.724 8.82249
652.203 11.0004
652.682 15.0486
653.160 23.4121
653.400 31.1458
653.639 43.8275
653.878 66.2530
653.998 84.2658
654.117 110.145
654.237 148.719
654.357 208.329
654.476 303.802
654.596 457.816
654.748 757.138
654.900 980.646
655.052 815.026
655.204 530.280
655.327 368.929
655.450 265.717
655.573 199.336
655.696 155.194
655.942 102.870
656.187 74.5433
656.433 57.5348
656.679 46.5184
657.171 33.5142
657.662 26.3516
658.154 21.9441
658.646 19.0115
659.137 16.9461
660.121 14.2671
661.104 12.6317
662.087 11.5422
663.071 10.7697
665.037 9.75353
667.004 9.11776
668.971 8.68267
670.937 8.36548
674.871 7.93094
678.804 7.64330
682.737 7.43532
686.670 7.27541
694.537 7.03978
702.404 6.86858
718.137 6.62278
733.870 6.44303
749.603 6.29799
765.336 6.17452
773.203 6.12069
775.170 6.10951
777.136 6.10246
778.119 6.10413
779.103 6.11964
779.594 6.14503
779.840 6.17045
780.086 6.21528
780.332 6.30367
780.455 6.38326
780.578 6.51228
780.701 6.74009
780.824 7.19355
780.885 7.60420
780.946 8.26218
781.008 9.37523
781.069 11.2926
781.135 14.4282
781.200 16.5121
781.265 14.4166
781.331 11.2839
781.400 9.19572
781.469 8.06211
781.537 7.42413
781.606 7.04116
781.675 6.79596
781.744 6.63093
781.882 6.43076
782.020 6.31893
782.157 6.25037
782.433 6.17393
782.708 6.13422
782.984 6.11068
783.535 6.08458
784.637 6.06126
785.738 6.04942
787.942 6.03575
790.146 6.02991
792.350 6.03687
793.452 6.05146
794.554 6.08403
795.105 6.11381
795.656 6.16088
796.207 6.23958
796.758 6.38281
797.033 6.50197
797.309 6.68075
797.584 6.96571
797.859 7.45907
798.135 8.42381
798.273 9.29315
798.410 10.7065
798.548 13.2237
798.617 15.2804
798.686 18.3030
798.755 22.9772
798.824 30.5980
798.893 43.7995
798.961 67.2448
799.031 104.070
799.100 128.585
799.169 104.044
799.239 67.2843
799.288 49.2477
799.337 37.2876
799.386 29.3362
799.435 23.9207
799.533 17.3697
799.631 13.7852
799.729 11.6339
799.827 10.2525
800.023 8.65060
800.219 7.79535
800.415 7.28711
800.611 6.96057
800.807 6.73858
801.199 6.46425
801.591 6.30721
801.984 6.20856
802.376 6.14222
803.160 6.06038
803.944 6.01268
804.728 5.98154
805.513 5.95940
807.081 5.92908
808.649 5.90802
811.786 5.87721
814.923 5.85257
818.060 5.83043
824.334 5.78932
836.882 5.71134
849.429 5.63459
874.524 5.47765
899.619 5.30744
924.715 5.10994
949.810 4.85786
962.357 4.69234
974.905 4.47501
981.179 4.33209
987.453 4.14796
990.589 4.03103
993.726 3.88792
996.863 3.70586
998.432 3.59509
1000.00 3.47068
1000.85 3.40093
1001.70 3.33707
1002.55 3.29764
1003.40 3.33567
1003.82 3.42761
1004.24 3.62617
1004.67 4.03871
1005.09 4.91397
1005.52 6.94744
1005.73 8.97639
1005.94 12.5127
1006.05 15.2995
1006.15 19.2374
1006.26 24.9899
1006.37 33.7395
1006.47 47.7154
1006.58 71.3705
1006.68 113.945
1006.74 147.541
1006.79 193.253
1006.90 322.483
1007.00 421.716
1007.11 353.677
1007.21 232.241
1007.29 164.159
1007.38 119.915
1007.46 91.1003
1007.54 71.7451
1007.71 48.5574
1007.87 35.8573
1008.04 28.1804
1008.21 23.1910
1008.54 17.3569
1008.87 14.3266
1009.20 13.0354
1009.37 13.1780
1009.53 14.4737
1009.62 16.0789
1009.70 19.1043
1009.78 25.0976
1009.86 37.2048
1009.93 54.0708
1010.00 65.0524
1010.07 53.4996
1010.14 36.5842
1010.22 24.5277
1010.29 18.2778
1010.37 14.8028
1010.45 12.7071
1010.60 10.4058
1010.75 9.20301
1010.91 8.46147
1011.06 7.95721
1011.37 7.29063
1011.99 6.52399
1012.60 6.05690
1013.84 5.46966
1015.07 5.09389
1017.54 4.60586
1020.00 4.27070
1022.47 4.00099
1024.94 3.76790
1027.40 3.58425
1028.02 3.56370
1028.64 3.58829
1028.95 3.65297
1029.25 3.83824
1029.41 4.06102
1029.56 4.54061
1029.64 5.00751
1029.72 5.81482
1029.79 7.32703
1029.87 10.3122
1029.94 14.4965
1030.00 17.2307
1030.07 14.4247
1030.13 10.3035
1030.18 8.31654
1030.22 7.00450
1030.31 5.48875
1030.40 4.73133
1030.49 4.31064
1030.67 3.89080
1030.84 3.69808
1031.20 3.53463
1031.55 3.47458
1032.98 3.51417
1034.40 3.87035
1035.82 4.84490
1036.53 5.82621
1037.24 7.46157
1037.96 10.3102
1038.67 15.6126
1039.02 20.0268
1039.38 26.5284
1039.73 36.5734
1040.09 52.8596
1040.44 81.3579
1040.80 135.770
1040.98 182.597
1041.16 253.423
1041.33 363.562
1041.51 534.419
1041.76 892.281
1042.00 1163.98
1042.25 970.553
1042.49 632.253
1042.76 388.320
1043.03 255.904
1043.30 180.683
1043.57 135.221
1043.84 105.701
1044.11 85.6326
1044.65 60.7439
1045.19 46.3952
1045.73 37.3467
1046.82 26.8596
1047.90 21.1550
1048.98 17.6528
1050.06 15.3177
1051.14 13.6649
1053.30 11.5008
1055.46 10.1604
1057.63 9.25337
1059.79 8.59992
1064.11 7.72025
1068.44 7.15197
1072.76 6.75000
1077.09 6.44656
1085.73 6.00726
1094.38 5.68970
1111.68 5.21331
1128.98 4.80631
1146.28 4.37506
1154.92 4.12272
1163.57 3.82576
1172.22 3.46567
1176.55 3.26530
1178.71 3.18749
1179.25 3.19030
1179.79 3.24146
1180.06 3.32559
1180.19 3.40689
1180.33 3.54393
1180.46 3.79454
1180.60 4.31254
1180.67 4.80143
1180.73 5.59933
1180.80 7.02698
1180.87 9.58445
1180.94 13.5418
1181.00 16.1257
1181.07 13.4720
1181.13 9.57235
1181.17 7.79485
1181.21 6.58994
1181.30 5.14886
1181.38 4.40290
1181.46 3.98236
1181.63 3.54751
1181.79 3.34056
1182.12 3.15232
1182.45 3.06664
1183.11 2.98154
1183.77 2.93295
1186.41 2.83343
1189.06 2.86476
1191.70 3.20624
1193.02 3.64649
1194.34 4.46526
1195.66 6.01801
1196.98 9.11963
1197.64 11.8273
1198.30 15.9618
1198.96 22.5738
1199.62 33.8005
1200.28 54.5252
1200.61 71.7439
1200.94 97.2763
1201.27 136.765
1201.60 200.829
1201.93 309.804
1202.26 499.146
1202.63 838.171
1203.00 1098.51
1203.37 917.299
1203.74 597.877
1204.03 420.595
1204.32 305.819
1204.61 230.977
1204.90 180.641
1205.48 120.240
1206.06 87.0821
1206.64 66.9496
1207.22 53.8249
1208.38 38.1872
1209.54 29.4765
1210.70 24.0730
1211.86 20.4505
1213.02 17.8810
1215.34 14.5181
1217.66 12.4427
1219.99 11.0453
1222.31 10.0450
1226.95 8.71022
1231.59 7.85840
1236.23 7.26790
1237.39 7.15166
1238.55 7.05569
1239.13 7.02605
1239.71 7.03857
1240.00 7.09460
1240.14 7.15629
1240.29 7.26614
1240.43 7.47541
1240.51 7.65514
1240.58 7.92386
1240.65 8.35886
1240.72 9.08799
1240.80 10.4365
1240.87 12.9607
1240.94 16.6625
1241.00 19.0745
1241.07 16.5942
1241.13 12.9418
1241.20 10.4820
1241.27 9.15552
1241.34 8.39165
1241.41 7.93578
1241.54 7.43758
1241.68 7.18980
1241.82 7.04557
1241.95 6.95375
1242.22 6.84216
1242.77 6.72743
1243.32 6.65855
1244.41 6.55906
1245.50 6.47829
1246.59 6.40875
1247.69 6.35648
1248.23 6.34776
1248.78 6.38117
1249.05 6.44796
1249.19 6.51543
1249.32 6.63013
1249.46 6.84397
1249.60 7.28657
1249.67 7.70966
1249.73 8.40509
1249.80 9.63549
1249.87 11.8850
1249.94 15.3312
1250.00 17.5825
1250.07 15.2688
1250.13 11.8710
1250.21 9.42654
1250.28 8.17409
1250.36 7.49789
1250.44 7.10205
1250.59 6.68652
1250.74 6.48547
1250.89 6.37049
1251.04 6.29804
1251.34 6.21084
1251.95 6.12171
1252.56 6.06798
1253.77 5.98901
1254.98 5.92261
1259.83 5.69435
1269.53 5.31502
1288.92 4.69266
1308.32 4.12108
1327.71 3.52327
1337.41 3.20561
1347.11 2.88581
1356.80 2.60432
1366.50 2.49491
1371.35 2.62179
1376.20 3.03133
1381.05 4.02239
1383.47 4.92751
1385.90 6.30645
1388.32 8.44308
1390.75 11.8411
1393.17 17.4638
1395.59 27.2980
1398.02 45.9070
1399.23 61.6433
1400.44 85.2405
1401.65 122.132
1402.87 182.611
1404.08 286.548
1405.29 468.981
1406.65 798.434
1408.00 1060.60
1409.36 900.778
1410.71 597.467
1412.12 383.412
1413.53 261.075
1414.94 189.230
1416.36 144.431
1417.77 114.819
1419.18 94.2876
1422.00 68.3575
1424.82 53.1178
1427.65 43.3315
1433.29 31.7816
1438.94 25.3576
1444.58 21.3402
1450.23 18.6192
1453.05 17.5752
1454.46 17.1392
1454.81 17.0576
1455.16 17.0230
1455.34 17.0570
1455.52 17.1953
1455.61 17.3610
1455.69 17.6802
1455.78 18.3425
1455.83 18.9306
1455.87 19.8032
1455.94 21.6842
1456.00 22.9059
1456.07 21.6153
1456.13 19.7264
1456.18 18.7453
1456.23 18.1144
1456.33 17.4040
1456.42 17.0494
1456.52 16.8451
1456.71 16.6180
1456.91 16.4859
1457.30 16.3123
1457.68 16.1797
1459.24 15.7444
1462.34 15.0030
1468.55 13.7914
1480.96 12.0347
1487.17 11.3471
1490.27 11.0244
1493.38 10.7021
1496.48 10.3628
1498.03 10.1787
1499.58 9.98040
1500.36 9.87663
1501.14 9.77385
1501.91 9.68368
1502.69 9.64193
1503.08 9.66977
1503.46 9.77178
1503.85 10.0246
1504.24 10.6101
1504.63 12.0284
1504.82 13.4694
1505.02 15.9928
1505.21 20.7804
1505.40 30.9756
1505.50 40.6229
1505.60 56.5960
1505.70 84.4253
1505.79 133.418
1505.90 220.125
1506.00 287.525
1506.11 244.282
1506.21 164.687
1506.29 120.476
1506.37 91.1492
1506.45 71.7154
1506.53 58.4786
1506.69 42.3763
1506.85 33.4491
1507.01 27.9334
1507.17 24.3169
1507.49 19.9405
1507.81 17.4630
1508.13 15.9104
1508.44 14.8566
1508.76 14.1000
1509.40 13.0914
1510.04 12.4541
1510.68 12.0131
1511.32 11.6890
1512.59 11.2380
1513.87 10.9321
1516.43 10.5249
1518.98 10.2479
1521.53 10.0346
1526.64 9.70532
1536.86 9.22586
1547.07 8.85868
1567.51 8.28690
1587.94 7.82643
1608.37 7.40386
1618.59 7.18259
1628.80 6.93202
1639.02 6.61382
1644.13 6.40348
1649.23 6.12822
1651.79 5.95173
1654.34 5.73591
1656.90 5.46419
1659.45 5.11205
1660.73 4.89637
1662.00 4.65120
1663.28 4.38370
1664.56 4.13555
1665.20 4.06259
1665.83 4.09057
1666.47 4.35124
1667.11 5.17146
1667.43 6.03677
1667.75 7.49503
1668.07 10.0306
1668.39 14.6619
1668.55 18.4239
1668.71 23.8270
1668.87 31.8268
1669.03 44.0235
1669.19 63.7195
1669.35 96.8064
1669.51 156.253
1669.67 264.746
1669.83 455.395
1670.00 610.885
1670.17 524.529
1670.34 352.563
1670.44 272.013
1670.54 213.980
1670.74 141.601
1670.95 101.631
1671.15 77.6855
1671.36 62.2714
1671.56 51.7565
1671.97 38.6703
1672.38 31.0504
1672.79 26.1917
1673.60 20.4687
1674.42 17.2960
1675.23 15.3781
1675.64 14.7569
1676.05 14.4457
1676.25 14.5443
1676.46 15.1303
1676.56 15.8811
1676.66 17.3938
1676.71 18.7179
1676.76 20.7375
1676.82 23.8978
1676.87 28.8480
1676.93 38.4355
1677.00 44.8257
1677.07 38.3032
1677.13 28.5824
1677.19 22.9183
1677.25 19.5494
1677.31 17.4639
1677.37 16.1115
1677.48 14.5348
1677.60 13.6768
1677.72 13.1445
1677.83 12.7797
1678.06 12.2981
1678.53 11.7306
1678.99 11.3565
1679.92 10.8181
1680.85 10.4170
1682.71 9.83016
1684.56 9.41296
1688.28 8.85119
1691.99 8.48560
1695.71 8.22490
1699.42 8.02710
1706.85 7.74053
1714.28 7.53623
1721.71 7.37790
1736.56 7.13683
1766.28 6.79318
1795.99 6.52282
1825.71 6.27535
1855.42 6.02250
1870.28 5.88495
1885.14 5.73331
1892.56 5.65031
1899.99 5.56276
1903.71 5.51951
1907.42 5.48484
1909.28 5.48165
1910.21 5.49149
1911.14 5.52020
1912.06 5.59551
1912.53 5.67515
1912.99 5.82132
1913.23 5.94345
1913.46 6.12514
1913.69 6.41205
1913.92 6.90121
1914.15 7.83209
1914.27 8.64603
1914.39 9.92869
1914.50 12.1063
1914.62 16.1877
1914.68 19.6556
1914.73 24.8800
1914.79 32.9960
1914.85 45.6632
1914.93 70.0400
1915.00 86.0127
1915.08 69.7052
1915.15 45.6711
1915.20 34.8109
1915.25 27.2809
1915.34 18.4932
1915.44 13.9358
1915.53 11.3442
1915.63 9.73709
1915.72 8.69812
1915.91 7.47091
1916.10 6.80109
1916.29 6.40006
1916.67 5.96075
1917.06 5.73624
1917.44 5.60542
1918.20 5.46271
1918.96 5.38678
1919.72 5.33839
1921.24 5.27516
1922.76 5.22968
1924.29 5.19078
1927.33 5.11896
1933.42 4.97216
