Zr-90(n,g) ENDF/B-VII.1
Energy(eV) XS(b)
1.00000E-05 0.501620
1.25000E-05 0.448663
1.50000E-05 0.409571
2.00000E-05 0.354699
2.75000E-05 0.302488
3.50000E-05 0.268127
4.25000E-05 0.243321
5.00000E-05 0.224331
6.25000E-05 0.200648
7.50000E-05 0.183166
0.000100000 0.158626
0.000125000 0.141880
0.000150000 0.129518
0.000200000 0.112166
0.000275000 0.0956552
0.000350000 0.0847892
0.000425000 0.0769450
0.000500000 0.0709398
0.000625000 0.0634505
0.000750000 0.0579221
0.00100000 0.0501620
0.00125000 0.0448663
0.00150000 0.0409571
0.00200000 0.0354699
0.00275000 0.0302488
0.00350000 0.0268127
0.00425000 0.0243322
0.00500000 0.0224332
0.00625000 0.0200648
0.00750000 0.0183166
0.0100000 0.0158627
0.0125000 0.0141880
0.0150000 0.0129518
0.0200000 0.0112166
0.0253000 0.00997281
0.0314750 0.00894120
0.0376500 0.00817517
0.0500000 0.00709408
0.0625000 0.00634516
0.0750000 0.00579233
0.100000 0.00501635
0.125000 0.00448679
0.150000 0.00409589
0.200000 0.00354720
0.275000 0.00302512
0.350000 0.00268154
0.500000 0.00224364
0.750000 0.00183206
1.00000 0.00158672
1.50000 0.00129574
2.00000 0.00112231
2.75000 0.000957318
3.50000 0.000848757
5.00000 0.000710432
7.50000 0.000580488
10.0000 0.000503084
15.0000 0.000411367
20.0000 0.000356776
27.5000 0.000304929
35.0000 0.000270886
50.0000 0.000227643
75.0000 0.000187251
100.000 0.000163378
150.000 0.000135423
200.000 0.000119086
275.000 0.000103958
350.000 9.43781E-05
500.000 8.29765E-05
750.000 7.40303E-05
1000.00 7.06946E-05
1500.00 7.28673E-05
2000.00 8.61328E-05
2461.74 0.000117160
2692.61 0.000148594
2923.48 0.000205717
3154.35 0.000326488
3269.79 0.000445598
3385.22 0.000661037
3442.94 0.000841527
3500.66 0.00111612
3558.37 0.00156466
3616.09 0.00237460
3644.95 0.00305153
3673.81 0.00407844
3702.67 0.00574820
3731.53 0.00874052
3745.96 0.0112208
3760.38 0.0149500
3774.81 0.0209371
3782.03 0.0253950
3785.64 0.0281818
3789.24 0.0314573
3792.85 0.0353436
3796.46 0.0400000
3798.26 0.0426833
3800.07 0.0456470
3801.87 0.0489314
3803.67 0.0525824
3805.48 0.0566609
3807.28 0.0612338
3810.89 0.0722089
3814.50 0.0864204
3818.10 0.105268
3821.71 0.131000
3825.32 0.167358
3828.92 0.221010
3832.53 0.304629
3836.14 0.444516
3837.94 0.551931
3839.75 0.700877
3841.55 0.913937
3843.35 1.22788
3845.16 1.70277
3846.96 2.42085
3849.48 3.87342
3852.00 4.83931
3854.52 3.86690
3857.04 2.41460
3859.40 1.53070
3861.75 1.01742
3864.11 0.712687
3866.46 0.522556
3871.17 0.311933
3875.88 0.205856
3880.60 0.145627
3885.31 0.108354
3894.73 0.0667329
3904.15 0.0453637
3913.57 0.0330589
3922.99 0.0254311
3932.41 0.0205059
3951.26 0.0154373
3960.68 0.0147726
3970.10 0.0157290
3979.52 0.0199351
3984.23 0.0248626
3988.94 0.0343685
3993.65 0.0553068
3996.01 0.0763877
3998.36 0.114910
3999.54 0.147372
4000.72 0.196875
4001.90 0.277761
4003.08 0.423202
4003.66 0.544147
4004.25 0.726291
4004.84 1.01902
4005.43 1.53250
4005.73 1.95060
4006.02 2.56376
4006.31 3.52200
4006.61 5.12639
4006.90 8.13587
4007.05 10.7150
4007.20 14.7091
4007.34 21.3271
4007.49 33.2885
4007.57 43.1643
4007.64 57.3311
4007.71 78.6810
4007.79 109.934
4007.89 176.234
4008.00 219.894
4008.11 175.580
4008.22 109.936
4008.34 63.6042
4008.46 39.7046
4008.58 26.6461
4008.70 18.9574
4008.82 14.1148
4008.94 10.8909
4009.18 7.02334
4009.43 4.88522
4009.67 3.59407
4010.15 2.17597
4010.64 1.45587
4011.12 1.04282
4011.61 0.783809
4012.09 0.610822
4013.06 0.401244
4014.03 0.284212
4015.00 0.212161
4015.96 0.164761
4017.90 0.108137
4019.84 0.0768931
4023.71 0.0453420
4027.59 0.0304757
4031.46 0.0222740
4039.21 0.0139283
4046.96 0.00991409
4054.71 0.00763318
4070.20 0.00519183
4085.70 0.00391950
4101.20 0.00313744
4132.19 0.00221767
4163.18 0.00168899
4194.18 0.00134468
4256.16 0.000925775
4318.15 0.000684711
4380.14 0.000531582
4504.11 0.000354220
4628.08 0.000259271
4752.05 0.000202941
5000.00 0.000143636
5281.18 0.000114696
5562.36 0.000104452
5843.54 0.000106399
6124.72 0.000121839
6405.90 0.000163076
6546.49 0.000206042
6687.08 0.000285384
6757.37 0.000352707
6827.67 0.000456150
6897.96 0.000627149
6968.26 0.000940765
7003.41 0.00120662
7038.55 0.00161510
7073.70 0.00229014
7108.85 0.00352643
7126.42 0.00457227
7144.00 0.00617526
7161.57 0.00881454
7179.14 0.0136207
7187.93 0.0176631
7196.72 0.0238235
7205.50 0.0338863
7214.29 0.0519991
7218.68 0.0670604
7223.08 0.0897465
7227.47 0.126237
7231.86 0.190431
7234.06 0.242600
7236.26 0.319452
7238.45 0.439311
7240.65 0.640985
7242.85 1.01924
7243.95 1.34531
7245.04 1.85229
7246.14 2.69805
7247.24 4.23876
7247.79 5.51158
7248.34 7.37796
7248.89 10.1807
7249.44 14.3896
7250.22 23.0472
7251.00 28.8236
7251.78 23.0383
7252.56 14.3838
7253.34 8.85676
7254.12 5.76322
7254.90 3.97625
7255.68 2.88482
7256.46 2.17769
7257.24 1.69814
7258.80 1.11087
7260.36 0.780912
7261.92 0.578061
7265.04 0.352668
7268.15 0.237154
7271.27 0.170271
7274.39 0.128139
7277.51 0.0999067
7283.74 0.0656138
7289.98 0.0463768
7296.22 0.0345191
7302.45 0.0266983
7314.92 0.0173496
7327.40 0.0121879
7339.87 0.00904043
7352.34 0.00698078
7377.28 0.00453838
7402.23 0.00320072
7427.17 0.00238980
7452.12 0.00186164
7502.00 0.00123909
7551.89 0.000901239
7601.78 0.000698891
7651.67 0.000569417
7751.44 0.000423353
7851.22 0.000353833
8050.77 0.000323267
8250.32 0.000403827
8350.10 0.000512451
8449.88 0.000725057
8499.76 0.000909359
8549.65 0.00119494
8599.54 0.00166906
8649.43 0.00253886
8674.37 0.00327439
8699.32 0.00440039
8724.26 0.00625022
8749.20 0.00960670
8761.68 0.0124187
8774.15 0.0166869
8786.62 0.0236208
8799.09 0.0360026
8805.33 0.0462119
8811.56 0.0614691
8817.80 0.0857331
8824.04 0.127745
8830.27 0.210031
8833.39 0.284383
8836.51 0.405835
8839.63 0.623350
8841.19 0.802237
8842.74 1.06733
8844.30 1.48052
8845.86 2.16414
8847.42 3.36900
8848.98 5.56569
8850.49 8.92449
8852.00 11.1685
8853.51 8.91903
8855.02 5.56213
8856.46 3.49494
8857.90 2.30832
8859.33 1.61005
8860.77 1.17680
8862.21 0.893505
8863.64 0.699612
8866.52 0.460427
8869.39 0.324934
8872.27 0.241223
8878.01 0.147740
8883.76 0.0995959
8889.51 0.0716419
8895.26 0.0539947
8901.01 0.0421508
8912.50 0.0277399
8924.00 0.0196428
8935.50 0.0146459
8946.99 0.0113475
8969.99 0.00740067
8992.98 0.00521927
9015.98 0.00388796
9038.97 0.00301620
9084.96 0.00198157
9130.94 0.00141443
9176.93 0.00107055
9222.92 0.000846832
9314.89 0.000585517
9406.86 0.000453800
9498.84 0.000438854
9544.83 0.000697329
9567.82 0.00183260
9579.32 0.00633607
9585.06 0.0236971
9587.94 0.0880325
9588.66 0.149759
9589.38 0.308919
9589.74 0.505275
9590.09 0.965091
9590.27 1.46921
9590.45 2.47029
9590.54 3.38500
9590.63 4.86290
9590.72 7.38195
9590.81 11.7465
9590.91 18.7744
9591.00 23.4932
9591.09 18.7745
9591.19 11.7467
9591.29 7.02786
9591.39 4.46652
9591.49 3.03314
9591.59 2.17535
9591.79 1.26217
9591.99 0.820199
9592.39 0.423120
9592.78 0.256973
9593.58 0.123439
9594.38 0.0723244
9597.58 0.0193774
9603.96 0.00519612
9616.74 0.00152141
9642.29 0.000576950
9693.39 0.000322532
9795.59 0.000234864
10000.0 0.000186141
10276.9 0.000162685
10553.7 0.000156796
11107.4 0.000174422
11661.1 0.000236724
11938.0 0.000305350
12076.4 0.000377559
12111.0 0.000417885
12145.6 0.000507820
12180.2 0.000925293
12197.5 0.00251739
12206.2 0.00869561
12210.5 0.0322277
12212.7 0.117080
12213.2 0.196237
12213.7 0.393875
12214.0 0.626849
12214.3 1.14197
12214.5 2.62842
12214.7 4.71473
12214.8 6.64092
12214.8 9.24802
12214.9 14.9924
12215.0 18.4466
12215.1 14.9924
12215.2 9.19892
12215.3 4.71483
12215.5 2.62851
12215.7 1.14203
12216.0 0.626898
12216.3 0.393915
12216.8 0.194143
12217.4 0.116124
12219.5 0.0318254
12223.9 0.00859965
12232.6 0.00250841
12250.1 0.000957261
12284.9 0.000583654
12354.7 0.000534818
12494.1 0.000649165
12633.6 0.000868736
12773.0 0.00126389
12842.8 0.00158878
12912.5 0.00207280
12982.2 0.00284015
13052.0 0.00416459
13086.8 0.00522115
13104.3 0.00591145
13121.7 0.00675074
13130.4 0.00724046
13139.2 0.00778618
13147.9 0.00839674
13156.6 0.00908189
13165.3 0.00985604
13174.0 0.0107330
13182.7 0.0117341
13191.4 0.0128807
13200.2 0.0142054
13208.9 0.0157444
13217.6 0.0175457
13226.3 0.0196686
13243.7 0.0252363
13261.2 0.0334683
13278.6 0.0462706
13287.3 0.0554342
13296.0 0.0673580
13304.8 0.0831541
13313.5 0.104313
13322.2 0.132918
13330.9 0.171164
13348.0 0.273740
13365.0 0.341743
13373.5 0.321285
13382.1 0.272837
13399.1 0.170298
13412.8 0.114951
13426.4 0.0802037
13440.1 0.0582171
13453.7 0.0438231
13481.1 0.0270930
13508.4 0.0182831
13535.7 0.0131338
13563.0 0.00988499
13617.6 0.00618622
13672.2 0.00424839
13726.9 0.00311220
13836.1 0.00190601
13945.4 0.00131676
14054.6 0.000988932
14273.1 0.000664543
14491.6 0.000526874
14710.1 0.000470132
15147.1 0.000480244
15584.1 0.000624262
15802.6 0.000769748
16021.1 0.00100448
16239.6 0.00140419
16458.1 0.00215617
16567.4 0.00281083
16676.6 0.00386335
16731.3 0.00468092
16758.6 0.00523106
16785.9 0.00595497
16799.6 0.00642907
16813.2 0.00703414
16826.9 0.00786725
16840.5 0.00915445
16854.2 0.0115455
16861.0 0.0137473
16867.8 0.0175786
16874.7 0.0254374
16878.1 0.0330384
16881.5 0.0464690
16883.2 0.0575249
16884.9 0.0740117
16886.6 0.100181
16888.3 0.145057
16890.0 0.233072
16890.9 0.311793
16891.7 0.439561
16892.6 0.669885
16893.0 0.858770
16893.4 1.12988
16893.9 1.55799
16894.3 2.23877
16894.7 3.44070
16895.1 5.51493
16895.6 8.78977
16896.0 10.9605
16896.4 8.70789
16896.9 5.45119
16897.1 4.00853
16897.4 3.00191
16897.9 1.82383
16898.5 1.20429
16899.0 0.848639
16899.5 0.628505
16900.1 0.483765
16901.1 0.312256
16902.2 0.218187
16903.3 0.162195
16905.4 0.101139
16907.5 0.0703063
16909.6 0.0527855
16913.9 0.0346103
16918.1 0.0259162
16922.4 0.0211679
16930.9 0.0165919
16947.8 0.0143813
16956.3 0.0165547
16960.6 0.0260922
16962.7 0.0607642
16963.8 0.174608
16964.3 0.485758
16964.6 1.13560
16964.7 1.98846
16964.8 3.95758
16965.0 7.88011
16965.2 3.93570
16965.3 1.98850
16965.4 1.18061
16965.7 0.540015
16966.2 0.200281
16967.1 0.0697122
16969.0 0.0287196
16972.9 0.0173708
16980.6 0.0146170
16996.0 0.0146277
17026.9 0.0168010
17057.7 0.0201715
17088.6 0.0248759
17119.5 0.0314385
17150.3 0.0407150
17181.2 0.0539863
17212.0 0.0728382
17262.5 0.116124
17313.0 0.144504
17338.3 0.135736
17363.5 0.115224
17414.0 0.0719427
17466.2 0.0435835
17518.4 0.0280146
17570.6 0.0191770
17622.8 0.0138352
17675.1 0.0104088
17727.3 0.00809779
17831.7 0.00529120
17936.1 0.00372802
18040.5 0.00277531
18249.3 0.00173384
18458.2 0.00122598
18667.0 0.000980384
18771.4 0.000939874
18875.8 0.00100139
18928.0 0.00113988
18980.2 0.00156051
19032.5 0.00382176
19058.6 0.0126871
19065.1 0.0217376
19071.6 0.0470208
19074.9 0.0816161
19078.1 0.176241
19079.8 0.301803
19081.4 0.631951
19082.2 1.05105
19082.6 1.43598
19083.0 2.05562
19083.4 3.21309
19083.6 4.21712
19083.8 5.66805
19084.1 8.12635
19084.3 12.1802
19084.5 19.6928
19084.7 34.8711
19084.8 56.1179
19085.0 69.7443
19085.2 56.1172
19085.3 34.8708
19085.5 23.1145
19085.6 16.0897
19085.8 11.4118
19085.9 8.59877
19086.2 5.24407
19086.5 3.50471
19086.8 2.49874
19087.1 1.86813
19087.7 1.15462
19088.8 0.565120
19090.0 0.333984
19092.3 0.156295
19094.6 0.0906397
19099.3 0.0417265
19103.9 0.0241530
19122.4 0.00681407
19159.5 0.00242392
19196.6 0.00165426
19233.7 0.00144333
19307.8 0.00149040
19382.0 0.00190986
19419.1 0.00231444
19456.1 0.00295409
19493.2 0.00401990
19530.3 0.00596018
19548.8 0.00758140
19567.4 0.0100304
19585.9 0.0139779
19604.5 0.0209401
19613.7 0.0266073
19623.0 0.0349688
19632.3 0.0480351
19641.5 0.0700927
19650.8 0.111618
19655.4 0.147635
19660.1 0.203769
19664.7 0.298126
19669.3 0.471414
19671.7 0.616259
19674.0 0.829566
19676.3 1.15477
19678.6 1.64679
19681.8 2.63468
19685.0 3.29234
19688.2 2.63312
19691.4 1.64576
19693.8 1.13548
19696.2 0.807238
19698.6 0.594240
19701.1 0.451938
19705.9 0.283320
19710.7 0.192732
19715.5 0.139024
19720.3 0.104894
19730.0 0.0656711
19739.6 0.0449062
19749.3 0.0326517
19758.9 0.0248210
19768.6 0.0195182
19787.8 0.0130041
19807.1 0.00931020
19826.4 0.00701558
19845.7 0.00549365
19884.3 0.00366080
19922.9 0.00264066
19961.4 0.00201367
20000.0 0.00160032
20101.1 0.00100229
20202.2 0.000712301
20303.3 0.000547644
20404.3 0.000443809
20606.5 0.000322425
20808.7 0.000254638
21213.0 0.000181911
21617.3 0.000143722
22426.0 0.000105329
23234.7 8.84332E-05
24043.3 8.31999E-05
24852.0 9.17384E-05
25256.3 0.000108900
25458.5 0.000126450
25660.6 0.000157990
25862.8 0.000222510
25963.9 0.000283418
26065.0 0.000387896
26166.1 0.000590427
26216.6 0.000772363
26267.1 0.00106978
26317.7 0.00161007
26343.0 0.00206805
26368.2 0.00278111
26393.5 0.00401316
26406.1 0.00502980
26418.8 0.00660704
26431.4 0.00941635
26437.7 0.0118625
26444.0 0.0159112
26450.4 0.0238069
26453.5 0.0311979
26456.7 0.0440794
26459.8 0.0701459
26461.4 0.0948409
26463.0 0.137605
26464.6 0.221777
26465.4 0.298418
26466.2 0.424790
26466.9 0.654502
26467.3 0.849328
26467.7 1.13521
26468.1 1.60252
26468.5 2.37895
26468.9 3.79511
26469.3 6.51525
26469.7 10.4018
26470.0 13.0109
26470.4 10.4016
26470.7 6.50607
26471.0 4.45028
26471.3 3.10484
26471.5 2.25391
26471.8 1.69704
26472.4 1.05126
26472.9 0.711662
26473.5 0.513507
26474.1 0.388576
26475.2 0.247438
26476.3 0.172827
26477.4 0.129549
26479.6 0.0836204
26481.9 0.0615636
26484.1 0.0496959
26488.5 0.0391117
26497.5 0.0375275
26506.4 0.0488034
26510.8 0.0599530
26515.3 0.0771801
26519.8 0.104749
26524.2 0.151945
26528.7 0.241740
26530.9 0.320127
26533.1 0.443418
26535.4 0.652164
26537.6 1.04182
26538.7 1.37333
26539.8 1.86627
26541.0 2.63518
26542.1 3.81731
26543.5 6.10663
26545.0 7.63201
26546.5 6.10534
26547.9 3.81633
26549.1 2.63452
26550.2 1.87673
26551.3 1.38011
26552.4 1.05119
26554.6 0.659146
26556.8 0.448452
26559.0 0.323707
26561.2 0.244222
26565.6 0.153006
26570.0 0.104601
26574.5 0.0759918
26578.9 0.0577063
26583.3 0.0453425
26592.1 0.0301111
26601.0 0.0214717
26609.8 0.0160964
26618.6 0.0125248
26636.3 0.00821818
26654.0 0.00581866
26671.6 0.00434486
26689.3 0.00337503
26724.6 0.00221603
26760.0 0.00157615
26795.3 0.00118546
26830.6 0.000929557
26901.3 0.000625539
26972.0 0.000458719
27113.3 0.000291563
27254.6 0.000214038
27396.0 0.000172393
27678.6 0.000133321
27961.3 0.000120694
28244.0 0.000128448
28526.6 0.000215199
28668.0 0.000577737
28738.7 0.00201722
28756.3 0.00349400
28774.0 0.00764843
28782.8 0.0133614
28791.7 0.0291866
28796.1 0.0505309
28798.3 0.0712777
28800.5 0.107793
28802.7 0.182107
28803.8 0.252254
28804.9 0.370611
28806.0 0.598662
28806.6 0.797415
28807.1 1.11194
28807.7 1.64951
28808.2 2.66820
28808.5 3.56339
28808.8 4.87870
28809.0 7.03218
28809.3 10.3598
28809.7 16.6461
28810.0 20.7058
28810.3 16.6455
28810.7 10.3444
28811.1 5.98259
28811.5 3.68335
28811.9 2.44838
28812.3 1.74417
28812.7 1.29089
28813.1 0.991504
28813.9 0.638460
28814.7 0.442378
28815.5 0.325321
28817.0 0.196243
28818.6 0.131041
28820.2 0.0936371
28823.4 0.0546119
28826.6 0.0357381
28829.8 0.0252020
28836.1 0.0144822
28848.8 0.00660191
28861.5 0.00378800
28887.0 0.00174962
28912.4 0.00102859
28963.3 0.000509970
29014.1 0.000327459
29217.5 0.000150886
29624.4 0.000108425
30438.1 0.000105746
32065.5 0.000137417
32879.3 0.000168500
33693.0 0.000224597
34099.8 0.000279512
34506.7 0.000401904
34710.1 0.000550550
34811.8 0.000690801
34913.6 0.000937233
35015.3 0.00144110
35066.1 0.00192271
35117.0 0.00276344
35167.8 0.00443813
35193.3 0.00598149
35218.7 0.00855796
35244.1 0.0133343
35256.8 0.0174073
35263.2 0.0201807
35269.6 0.0236603
35275.9 0.0281138
35282.3 0.0339151
35285.5 0.0374892
35288.6 0.0416348
35291.8 0.0464723
35295.0 0.0521334
35298.2 0.0588429
35301.3 0.0668230
35304.5 0.0763729
35307.7 0.0878251
35314.1 0.118507
35320.4 0.163036
35325.3 0.208636
35330.2 0.260760
35340.0 0.325862
35344.9 0.306623
35349.8 0.260574
35359.6 0.162860
35367.8 0.108363
35375.9 0.0748092
35384.1 0.0538782
35392.3 0.0403463
35408.6 0.0248063
35424.9 0.0167161
35441.2 0.0120197
35457.6 0.00906983
35490.2 0.00572744
35522.9 0.00398292
35555.5 0.00296248
35620.8 0.00188076
35686.1 0.00135222
35751.5 0.00105741
35882.1 0.000762407
36012.7 0.000630996
36143.3 0.000567038
36404.5 0.000524607
36927.0 0.000567728
37449.4 0.000694143
37971.9 0.000906496
38494.3 0.00125979
39016.8 0.00190843
39278.0 0.00253528
39408.6 0.00334195
39441.3 0.00391841
39473.9 0.00537681
39490.3 0.00730635
39498.4 0.00919927
39506.6 0.0126194
39514.7 0.0198466
39518.8 0.0269422
39522.9 0.0396799
39527.0 0.0661288
39529.0 0.0916061
39531.1 0.136277
39533.1 0.225547
39534.1 0.307991
39535.1 0.445910
39536.2 0.702025
39536.7 0.920731
39537.2 1.25739
39537.7 1.81051
39538.2 2.79796
39538.7 4.74615
39539.0 6.47217
39539.2 8.99390
39539.6 14.3236
39540.0 17.9738
39540.4 14.3232
39540.8 8.98200
39541.2 5.52384
39541.6 3.57841
39541.9 2.46238
39542.3 1.79658
39542.7 1.35354
39543.1 1.06017
39543.9 0.695153
39544.6 0.489851
39545.4 0.363543
39546.9 0.223104
39550.0 0.109161
39553.1 0.0653833
39565.4 0.0198066
39577.8 0.0108140
39590.1 0.00762047
39614.8 0.00537006
39639.4 0.00464453
39738.1 0.00433023
39935.3 0.00561149
40034.0 0.00684150
40132.6 0.00907380
40181.9 0.0112199
40231.3 0.0154939
40255.9 0.0196935
40280.6 0.0274362
40292.9 0.0340290
40305.2 0.0440724
40317.6 0.0599884
40329.9 0.0855148
40345.0 0.131874
40360.0 0.162888
40375.1 0.132281
40390.1 0.0865548
40403.3 0.0602086
40416.5 0.0445248
40429.7 0.0350937
40442.9 0.0292132
40469.3 0.0228942
40495.7 0.0200490
40548.5 0.0184128
40601.3 0.0190476
40706.9 0.0236385
40812.5 0.0325752
40918.0 0.0490853
40970.8 0.0627056
41023.6 0.0828386
41076.4 0.114075
41129.2 0.165363
41182.0 0.254798
41234.8 0.415670
41287.4 0.667610
41340.0 0.835174
41392.6 0.664827
41445.2 0.414260
41487.7 0.279208
41530.2 0.195149
41572.6 0.142339
41615.1 0.108024
41700.1 0.0688211
41785.0 0.0491924
41870.0 0.0393245
41954.9 0.0359796
41997.4 0.0367550
42039.9 0.0396502
42082.3 0.0454621
42124.8 0.0553083
42156.1 0.0655824
42187.4 0.0775748
42250.0 0.0920168
42281.3 0.0864710
42312.6 0.0743587
42375.2 0.0489692
42446.5 0.0308630
42517.8 0.0211801
42589.2 0.0156768
42660.5 0.0122708
42803.1 0.00839958
42945.8 0.00631025
43231.0 0.00417913
43516.3 0.00320446
43801.6 0.00286405
43944.2 0.00295077
44086.9 0.00333703
44229.5 0.00436486
44300.8 0.00541688
44372.1 0.00727185
44443.5 0.0108949
44479.1 0.0141191
44514.8 0.0192746
44550.4 0.0281941
44586.1 0.0453781
44603.9 0.0603926
44621.8 0.0836421
44639.6 0.121065
44657.4 0.181923
44678.7 0.290801
44700.0 0.363240
44721.3 0.290265
44742.6 0.181526
44763.1 0.113871
44783.7 0.0752453
44804.2 0.0526291
44824.8 0.0386508
44865.8 0.0232912
44906.9 0.0156088
44948.0 0.0112565
44989.1 0.00856311
45071.2 0.00554228
45153.3 0.00397149
45235.5 0.00304665
45399.8 0.00204518
45564.1 0.00153135
45728.4 0.00122482
46057.0 0.000878541
46714.1 0.000563238
47371.3 0.000410991
48685.7 0.000258383
50000.0 0.000183321
51684.2 0.000141417
52105.3 0.000145492
52526.3 0.000175607
52736.9 0.000224850
52842.1 0.000275612
52947.4 0.000369059
53052.6 0.000567767
53105.3 0.000762902
53157.9 0.00111174
53184.2 0.00139966
53210.5 0.00183013
53236.9 0.00251593
53263.2 0.00370606
