Cd-110(n,tot) ENDF/B-VII.1
Energy(eV) XS(b)
1.00000E-05 560.181
1.25000E-05 501.488
1.50000E-05 458.163
2.00000E-05 397.348
2.75000E-05 339.483
3.50000E-05 301.401
4.25000E-05 273.908
5.00000E-05 252.861
6.25000E-05 226.613
7.50000E-05 207.237
0.000100000 180.040
0.000125000 161.479
0.000150000 147.778
0.000200000 128.546
0.000275000 110.247
0.000350000 98.2031
0.000425000 89.5087
0.000500000 82.8525
0.000625000 74.5512
0.000750000 68.4233
0.00100000 59.8213
0.00125000 53.9508
0.00150000 49.6171
0.00200000 43.5335
0.00275000 37.7443
0.00350000 33.9336
0.00425000 31.1823
0.00500000 29.0756
0.00625000 26.4478
0.00750000 24.5075
0.0100000 21.7829
0.0125000 19.9226
0.0150000 18.5486
0.0200000 16.6184
0.0253000 15.2333
0.0314750 14.0830
0.0376500 13.2276
0.0500000 12.0180
0.0625000 11.1777
0.0750000 10.5556
0.100000 9.67860
0.125000 9.07658
0.150000 8.62954
0.200000 7.99664
0.237500 7.65621
0.275000 7.38566
0.350000 6.97642
0.500000 6.44192
0.750000 5.91834
1.00000 5.59053
1.50000 5.17776
2.00000 4.91402
2.75000 4.64627
3.50000 4.45907
5.00000 4.20553
7.50000 3.94973
10.0000 3.78731
12.5000 3.67023
15.0000 3.57863
20.0000 3.43639
27.5000 3.26816
35.0000 3.11346
42.5000 2.94829
50.0000 2.75287
54.9289 2.59645
59.8578 2.40665
64.7867 2.17006
69.7156 1.87066
72.1800 1.69478
74.6444 1.50765
77.1089 1.33453
79.5733 1.26522
80.8056 1.35324
81.4217 1.46364
81.7297 1.54403
81.8838 1.59208
82.0378 1.64609
82.1918 1.70670
82.3458 1.77462
82.4999 1.85062
82.6539 1.93561
82.8079 2.03060
82.9620 2.13672
83.1160 2.25527
83.2700 2.38770
83.5781 2.70116
83.8861 3.09357
84.1942 3.58673
84.5022 4.20985
84.8103 5.00276
85.1183 6.02056
85.4264 7.34130
85.7344 9.07761
86.0425 11.3970
86.3506 14.5553
86.6586 18.9592
86.9667 25.2818
87.2747 34.7007
87.5828 49.4145
87.8908 73.9018
88.1989 118.392
88.3529 155.307
88.5069 210.423
88.6610 297.422
88.8150 445.332
88.9690 724.421
89.0460 965.379
89.1231 1339.02
89.2001 1957.41
89.2771 3068.50
89.3156 3971.31
89.3541 5272.45
89.3926 7184.92
89.4311 9987.45
89.4901 16159.2
89.5490 20425.0
89.6080 16526.8
89.6669 10448.3
89.7073 7516.03
89.7476 5529.60
89.7880 4186.28
89.8284 3258.68
89.9091 2119.12
89.9898 1483.56
90.0705 1096.91
90.1513 845.324
90.3127 549.336
90.4742 388.476
90.6356 291.288
90.7971 227.958
90.9585 184.305
91.2815 129.438
91.6044 97.3596
91.9273 76.8618
92.2502 62.8948
92.8960 45.4806
93.5418 35.3264
94.1876 28.8172
94.8335 24.3544
96.1251 18.7255
97.4167 15.3834
98.7084 13.2013
100.000 11.6783
101.563 10.3648
103.125 9.41313
106.250 8.13437
109.375 7.31988
112.500 6.75811
118.750 6.03618
125.000 5.59304
131.250 5.29333
137.500 5.07678
150.000 4.78350
162.500 4.59211
175.000 4.45489
187.500 4.34847
200.000 4.25804
207.747 4.20312
211.621 4.17332
215.494 4.13929
219.367 4.09625
221.304 4.06810
223.241 4.03172
224.209 4.00867
225.178 3.98083
226.146 3.94638
227.114 3.90309
227.599 3.87767
228.083 3.85045
228.567 3.82453
229.051 3.81123
229.293 3.81990
229.535 3.85432
229.777 3.94517
230.019 4.17132
230.141 4.39636
230.262 4.77471
230.383 5.44832
230.504 6.74943
230.564 7.87799
230.625 9.61307
230.685 12.4420
230.746 17.4293
230.806 27.2621
230.821 31.2120
230.837 36.1066
230.852 42.3016
230.859 46.0559
230.867 50.2794
230.874 55.1839
230.882 60.8405
230.890 67.4041
230.897 74.9608
230.912 94.4631
230.927 122.245
230.942 163.565
230.958 226.546
230.973 326.356
230.988 485.748
231.007 790.241
231.026 1004.25
231.036 954.217
231.045 818.985
231.064 523.787
231.078 378.145
231.091 279.579
231.104 213.033
231.118 167.107
231.144 110.700
231.171 79.2868
231.197 60.0449
231.224 47.5278
231.277 32.6874
231.330 24.5583
231.383 19.6072
231.436 16.3556
231.489 14.0968
231.595 11.2273
231.702 9.52543
231.808 8.42314
231.914 7.66242
232.127 6.69744
232.339 6.12268
232.551 5.74690
232.764 5.48459
233.189 5.14600
233.613 4.93918
234.038 4.80067
234.463 4.70181
235.313 4.57036
236.163 4.48690
237.012 4.42903
237.862 4.38632
239.561 4.32692
241.261 4.28685
244.659 4.23437
248.058 4.19968
251.457 4.17371
258.254 4.13480
271.849 4.07943
285.444 4.03603
299.039 3.99730
312.634 3.95938
319.432 3.93953
326.229 3.91824
329.628 3.90690
333.027 3.89545
334.726 3.89044
336.425 3.88842
337.275 3.89183
337.700 3.89706
338.125 3.90811
338.550 3.93371
338.762 3.95987
338.975 4.00770
339.081 4.04774
339.187 4.10825
339.293 4.20569
339.399 4.37713
339.506 4.72083
339.559 5.03903
339.612 5.57249
339.665 6.56608
339.691 7.41898
339.718 8.73064
339.745 10.9027
339.771 14.7868
339.784 17.9576
339.798 22.5426
339.811 29.3091
339.824 39.1816
339.844 60.4477
339.864 74.5381
339.884 60.3353
339.904 39.1834
339.918 28.4663
339.933 21.5044
339.947 16.9343
339.962 13.8528
339.991 10.1576
340.020 8.16261
340.049 6.97089
340.078 6.21143
340.136 5.33471
340.194 4.86830
340.252 4.59245
340.310 4.41551
340.368 4.29570
340.484 4.14797
340.600 4.06398
340.716 4.01156
340.833 3.97658
341.065 3.93403
341.297 3.90987
341.761 3.88412
342.226 3.87061
342.690 3.86199
343.619 3.85056
345.477 3.83457
347.335 3.82006
351.051 3.78744
354.767 3.74385
356.625 3.71496
358.482 3.67855
360.340 3.63086
362.198 3.56536
363.127 3.52256
364.056 3.47031
364.985 3.40603
365.914 3.32826
366.379 3.28602
366.843 3.24657
367.308 3.22301
367.772 3.25502
368.004 3.32593
368.236 3.48069
368.469 3.80886
368.701 4.53262
368.817 5.21066
368.933 6.30861
369.049 8.19170
369.165 11.6931
369.194 13.0260
369.223 14.6343
369.252 16.6016
369.281 19.0365
369.296 20.4851
369.311 22.1027
369.325 23.9282
369.340 25.9971
369.369 31.0476
369.398 37.7354
369.427 46.8478
369.456 59.5456
369.485 77.9291
369.514 105.714
369.543 150.166
369.572 225.381
369.586 283.078
369.601 361.993
369.615 470.925
369.630 620.240
369.657 1014.57
369.684 1296.21
369.711 1061.61
369.738 680.855
369.770 398.742
369.802 253.014
369.834 173.586
369.866 126.730
369.897 97.0724
369.929 77.1911
369.993 53.0563
370.056 39.5018
370.120 31.1082
370.247 21.6208
370.374 16.6078
370.502 13.6062
370.629 11.6489
370.756 10.2912
371.011 8.55982
371.265 7.52285
371.519 6.84233
371.774 6.36603
372.283 5.74972
372.791 5.37257
373.300 5.11999
373.809 4.93985
374.827 4.70106
375.844 4.55051
376.862 4.44710
377.880 4.37171
379.915 4.26895
381.950 4.20192
383.986 4.15445
386.021 4.11883
390.092 4.06835
394.163 4.03360
398.233 4.00764
402.304 3.98709
410.445 3.95563
418.587 3.93160
434.869 3.89461
451.152 3.86495
467.435 3.83887
483.717 3.81480
491.859 3.80371
495.929 3.79932
497.965 3.79855
500.000 3.80233
500.901 3.80974
501.351 3.81775
501.801 3.83286
502.251 3.86564
502.477 3.89826
502.702 3.95723
502.814 4.00638
502.927 4.08051
503.039 4.19984
503.152 4.40974
503.208 4.58048
503.265 4.83210
503.321 5.22468
503.377 5.88445
503.433 7.12388
503.462 8.19593
503.490 9.85825
503.518 12.6419
503.546 17.7066
503.560 21.9118
503.574 28.0385
503.588 37.3141
503.602 51.1563
503.622 79.7009
503.642 98.6227
503.662 79.5472
503.682 51.1545
503.700 34.1355
503.718 24.1173
503.737 18.1088
503.755 14.3455
503.791 10.1265
503.827 7.98355
503.864 6.75985
503.900 5.99928
503.972 5.14552
504.045 4.70331
504.118 4.44613
504.190 4.28340
504.263 4.17399
504.408 4.04054
504.553 3.96543
504.844 3.88819
505.134 3.85119
505.425 3.83056
506.006 3.80932
507.168 3.79283
508.329 3.78592
510.653 3.77881
512.977 3.77417
517.624 3.76657
522.272 3.75956
540.862 3.73213
578.041 3.67364
615.221 3.60452
624.516 3.58468
633.811 3.56370
638.458 3.55303
643.106 3.54319
645.430 3.53988
647.753 3.54159
648.915 3.54944
649.496 3.55885
650.077 3.57731
650.658 3.61842
650.949 3.65992
651.239 3.73557
651.384 3.79907
651.529 3.89533
651.675 4.05137
651.820 4.32886
651.893 4.55699
651.965 4.89596
652.038 5.43158
652.110 6.35041
652.183 8.12393
652.219 9.70155
652.256 12.2357
652.292 16.6628
652.328 25.3447
652.346 33.1086
652.364 45.3130
652.383 65.6241
652.401 99.6170
652.421 157.522
652.441 195.907
652.462 157.206
652.482 99.6024
652.495 72.8399
652.509 54.5789
652.535 33.5241
652.562 22.8843
652.589 16.9379
652.616 13.3247
652.643 10.9805
652.696 8.24239
652.750 6.76635
652.803 5.88492
652.857 5.31761
652.910 4.93201
653.018 4.45497
653.125 4.18320
653.232 4.01359
653.339 3.90085
653.553 3.76471
653.768 3.68869
653.982 3.64187
654.196 3.61091
654.625 3.57355
655.053 3.55246
655.910 3.53001
656.768 3.51816
657.625 3.51051
659.339 3.50023
662.767 3.48589
666.196 3.47349
673.053 3.44895
679.910 3.42289
693.624 3.36332
707.338 3.28973
721.053 3.19516
734.767 3.06755
741.624 2.98501
748.481 2.88502
751.909 2.82776
753.624 2.79792
755.338 2.76869
757.052 2.74409
757.909 2.73739
758.766 2.74092
759.195 2.75071
759.624 2.77113
760.052 2.81142
760.481 2.89339
760.695 2.96592
760.909 3.07917
761.124 3.26733
761.338 3.60939
761.445 3.89512
761.552 4.32550
761.659 5.01756
761.766 6.23020
761.874 8.65287
761.927 10.8862
761.981 14.6041
762.034 21.4885
762.061 27.3402
762.088 36.2621
762.115 50.8569
762.141 76.6236
762.168 126.565
762.182 169.003
762.195 229.607
762.216 366.358
762.237 457.026
762.258 365.641
762.279 229.571
762.298 150.926
762.316 103.476
762.335 74.4392
762.353 55.9777
762.390 34.9385
762.426 24.1425
762.463 17.9092
762.500 14.0241
762.573 9.63657
762.647 7.35075
762.720 6.01599
762.794 5.16785
762.867 4.59699
763.014 3.89811
763.161 3.50240
763.308 3.25607
763.455 3.09176
763.749 2.89135
764.042 2.77641
764.336 2.70262
764.630 2.65102
765.218 2.58188
765.805 2.53493
766.980 2.46679
768.156 2.41091
769.331 2.35820
771.681 2.25071
776.382 1.99897
781.083 1.66510
783.434 1.45434
785.784 1.20762
788.135 0.926178
790.485 0.639688
791.660 0.531788
792.248 0.504461
792.836 0.509487
793.423 0.565785
793.717 0.622039
794.011 0.703846
794.305 0.818243
794.599 0.974457
794.892 1.18473
795.186 1.46551
795.480 1.83935
795.774 2.33699
796.068 3.00222
796.361 3.89785
796.655 5.11635
796.949 6.79764
797.243 9.16038
797.537 12.5596
797.830 17.5987
798.124 25.3635
798.418 37.9511
798.712 59.7999
799.006 101.521
799.153 137.569
799.299 193.128
799.446 283.728
799.593 442.050
799.740 741.163
799.814 988.414
799.887 1336.43
800.016 2216.11
800.145 2869.34
800.274 2375.77
800.402 1536.08
800.496 1097.29
800.591 804.588
800.685 609.586
800.779 476.470
800.968 314.230
801.156 224.209
801.345 169.348
801.533 133.497
801.910 90.8797
802.287 67.3039
802.665 52.7866
803.042 43.1431
803.419 36.3684
804.173 27.6219
804.927 22.3238
805.681 18.8243
806.435 16.3653
807.943 13.1740
809.452 11.2171
810.960 9.90640
812.468 8.97228
815.485 7.73656
818.501 6.96174
820.010 6.67649
821.518 6.44406
822.272 6.35144
822.649 6.31569
823.026 6.29417
823.403 6.30508
823.592 6.33920
823.780 6.41895
823.969 6.60852
824.063 6.80066
824.157 7.14355
824.252 7.83420
824.299 8.46973
824.346 9.52485
824.393 11.4617
824.417 13.0909
824.440 15.5456
824.464 19.4986
824.487 26.2748
824.511 38.9757
824.534 63.8400
824.554 98.4877
824.575 121.572
824.595 98.4813
824.615 63.8287
824.637 39.5580
824.660 26.9187
824.683 20.0249
824.706 15.9713
824.728 13.4203
824.751 11.7228
824.796 9.68631
824.842 8.56293
824.887 7.87969
824.978 7.12624
825.069 6.73934
825.159 6.51301
825.341 6.26772
825.523 6.13940
825.704 6.05983
826.067 5.96163
826.430 5.89737
826.793 5.84744
827.519 5.76667
828.972 5.63657
830.424 5.52635
833.328 5.34091
836.233 5.18830
842.042 4.94944
847.851 4.76929
859.469 4.50986
871.087 4.32201
882.705 4.16351
888.514 4.08462
894.323 3.99829
900.132 3.89363
903.036 3.82798
905.941 3.74679
908.845 3.64058
910.298 3.57336
911.750 3.49343
913.202 3.39990
913.928 3.35076
914.654 3.30780
915.380 3.29515
915.744 3.32400
916.107 3.41651
916.470 3.67417
916.651 3.95694
916.833 4.49008
917.014 5.63134
917.105 6.74251
917.196 8.69103
917.287 12.5701
917.332 16.1229
917.377 21.9869
917.423 32.7054
917.445 41.6881
917.468 55.2495
917.491 76.9286
917.513 114.099
917.536 183.043
917.559 316.684
917.578 505.827
917.598 631.160
917.618 504.785
917.637 316.656
917.651 225.939
917.664 165.505
917.678 124.673
917.692 96.8756
917.719 62.8772
917.746 44.1148
917.773 32.8089
917.800 25.5153
917.854 17.0291
917.908 12.4838
917.963 9.77302
918.071 6.83806
918.179 5.35820
918.288 4.50341
918.504 3.59046
918.721 3.12505
918.938 2.85197
919.371 2.61099
919.588 2.63965
919.805 2.83898
920.022 3.37067
920.130 3.87023
920.238 4.64313
920.292 5.18215
920.347 5.86338
920.401 6.73181
920.455 7.85071
920.509 9.31088
920.563 11.2460
920.618 13.8585
920.672 17.4578
920.726 22.5729
920.780 30.0808
920.834 41.5783
920.888 60.1228
920.943 92.3384
920.970 117.738
920.997 153.659
921.024 206.050
921.051 284.949
921.078 407.028
921.105 595.753
921.143 989.657
921.180 1283.59
921.218 1066.38
921.255 692.042
921.294 437.306
921.332 293.166
921.370 208.877
921.409 156.838
921.447 122.627
921.486 99.1309
921.563 69.7335
921.640 52.7186
921.716 41.9434
921.870 29.4685
922.024 22.7014
922.178 18.5655
922.332 15.8223
922.485 13.8916
922.793 11.3861
923.101 9.85281
923.408 8.82883
923.716 8.10135
924.331 7.14307
924.946 6.54418
925.561 6.13627
926.177 5.84121
927.407 5.44352
928.637 5.18793
929.868 5.00957
931.098 4.87772
933.559 4.69491
936.020 4.57306
938.481 4.48507
940.941 4.41785
945.863 4.32019
950.784 4.25088
960.628 4.15466
970.471 4.08702
980.314 4.03401
1000.00 3.95047
1029.38 3.84999
1058.76 3.75358
1073.45 3.69752
1080.79 3.66376
1088.14 3.62224
1095.48 3.56540
1099.15 3.52576
1102.83 3.47159
1104.66 3.43541
1106.50 3.38947
1108.34 3.32846
1110.17 3.24246
1111.09 3.18439
1112.01 3.11078
1112.93 3.01444
1113.84 2.88364
1114.30 2.79981
1114.76 2.70005
1115.22 2.58277
1115.68 2.45424
1115.91 2.39603
1116.14 2.36089
1116.37 2.38983
1116.60 2.59485
1116.71 2.85449
1116.83 3.33793
1116.94 4.25965
1117.00 5.01289
1117.06 6.10059
1117.11 7.75035
1117.14 8.88412
1117.17 10.2564
1117.20 12.0616
1117.23 14.3979
1117.26 17.4756
1117.29 21.4495
1117.32 27.0890
1117.34 35.0856
1117.37 46.8341
1117.40 64.0902
1117.43 92.7436
1117.46 139.797
1117.47 178.654
1117.49 228.509
1117.50 296.924
1117.52 390.247
1117.54 657.487
1117.57 851.397
1117.58 815.499
1117.60 702.348
1117.63 457.923
1117.64 339.793
1117.66 257.461
1117.70 160.056
1117.73 109.226
1117.77 79.9941
1117.81 61.7565
1117.84 49.6253
1117.91 35.1053
1117.98 26.7965
1118.06 21.6852
1118.20 15.7802
1118.34 12.5966
1118.48 10.6519
1118.63 9.35974
1118.77 8.44752
1119.06 7.25447
1119.34 6.52203
1119.63 6.02931
1119.92 5.67696
1120.49 5.20838
1121.06 4.91333
1121.63 4.71077
1122.20 4.56330
1123.35 4.36290
1124.49 4.23314
1125.64 4.14215
1126.78 4.07485
1129.07 3.98245
1130.22 3.95053
1131.36 3.92676
1132.51 3.91376
1133.65 3.92637
1134.22 3.96404
1134.51 4.00640
1134.80 4.08693
1135.08 4.26106
1135.23 4.43278
1135.37 4.73924
1135.44 4.99320
1135.51 5.36574
1135.58 5.96269
1135.65 6.97087
1135.73 8.94094
1135.76 10.6960
1135.80 13.4186
1135.83 18.2721
1135.87 27.7588
1135.89 36.1768
1135.91 49.4100
1135.92 71.1046
1135.94 104.559
1135.96 165.905
1135.98 203.961
1136.00 162.789
1136.02 104.537
1136.04 77.6075
1136.05 58.8624
1136.07 36.7430
1136.10 25.3037
1136.13 18.8154
1136.15 14.8339
1136.18 12.2325
1136.23 9.16955
1136.28 7.51151
1136.33 6.51696
1136.44 5.44346
1136.54 4.89750
1136.65 4.58540
1136.75 4.39028
1136.85 4.26110
1137.06 4.10260
1137.27 4.01360
1137.68 3.92036
1138.10 3.87375
1138.51 3.84600
1139.34 3.81369
1141.00 3.77984
1142.66 3.75840
1145.98 3.72678
1149.30 3.70153
1155.93 3.65977
1162.57 3.62405
1175.84 3.56012
1189.11 3.49859
1215.66 3.36445
1222.30 3.32619
1228.93 3.28546
1235.57 3.24418
1237.23 3.23606
1238.89 3.23450
1239.72 3.24293
1240.55 3.27752
1240.96 3.33013
1241.17 3.38357
1241.38 3.48029
1241.58 3.68383
1241.69 3.88090
1241.79 4.22302
1241.89 4.91271
1241.95 5.55026
1242.00 6.59059
1242.05 8.54705
1242.08 10.2138
1242.10 12.7724
1242.13 16.9590
1242.15 24.3822
1242.18 38.8503
1242.19 51.1936
1242.20 67.4009
1242.23 107.335
1242.25 132.431
1242.27 105.282
1242.29 67.3752
1242.31 43.9508
1242.32 30.3217
1242.34 22.2185
1242.36 17.3676
1242.40 11.6328
1242.44 8.80529
1242.47 7.14718
1242.51 6.14500
1242.59 5.00220
1242.66 4.41132
1242.74 4.06715
1242.89 3.70449
1243.04 3.52488
1243.18 3.42397
1243.48 3.31889
1243.78 3.26762
1244.08 3.23822
1244.68 3.20616
1245.88 3.17662
1247.07 3.15970
1249.47 3.13422
1251.86 3.11120
1256.64 3.06469
1261.43 3.01489
1271.00 2.90067
1280.57 2.75982
1290.14 2.58045
1299.71 2.34342
1304.49 2.19426
1309.28 2.01919
1311.67 1.92274
1312.87 1.87429
1314.06 1.82917
1315.26 1.79664
1315.86 1.79381
1316.46 1.81432
1317.05 1.89437
1317.35 1.98980
1317.65 2.17592
1317.80 2.33763
1317.95 2.58496
1318.10 2.99296
1318.25 3.71823
1318.32 4.31868
1318.40 5.21335
1318.47 6.62830
1318.55 9.01245
1318.62 13.6454
1318.66 17.8174
1318.70 24.3101
1318.74 35.8885
1318.77 57.7046
1318.79 77.3614
1318.81 106.126
1318.83 154.920
1318.85 229.657
1318.87 364.098
1318.89 452.725
1318.91 364.058
1318.94 229.603
1318.95 168.643
1318.96 126.176
1318.99 77.3119
1319.02 51.5174
1319.04 36.6758
1319.07 27.4754
1319.10 21.4194
1319.15 14.2351
1319.21 10.3171
1319.26 7.95485
1319.37 5.37526
1319.48 4.07238
1319.58 3.32329
1319.69 2.85236
1319.80 2.53621
1320.02 2.14875
1320.23 1.92628
1320.45 1.78406
1320.66 1.68546
1321.10 1.55577
1321.53 1.47051
1322.39 1.35299
1323.26 1.26242
1324.12 1.18123
1325.85 1.02563
1329.31 0.707315
1332.76 0.398163
1334.49 0.289672
1335.36 0.267525
1336.22 0.283420
1337.09 0.358851
1337.52 0.428797
1337.95 0.527839
1338.38 0.663768
1338.81 0.846745
1339.25 1.09017
1339.68 1.41194
1340.11 1.83736
1340.54 2.39776
1341.41 4.13149
1341.84 5.46720
1342.27 7.29134
1342.70 9.82516
1343.13 13.4213
1343.57 18.6657
1344.00 26.5824
1344.43 39.0762
1344.86 59.9757
1345.29 97.7772
1345.51 128.702
1345.73 173.883
1345.94 242.467
1346.16 351.088
1346.37 530.178
1346.59 829.935
1346.85 1396.77
1347.11 1831.77
1347.37 1526.73
1347.63 991.891
1347.80 742.363
1347.96 566.369
1348.29 355.572
1348.62 243.697
1348.96 178.602
1349.29 137.545
1349.62 110.154
1350.28 76.7951
1350.94 57.8670
1351.61 46.0289
1352.93 32.3935
1354.26 25.0003
1355.58 20.4631
1356.91 17.4359
1358.23 15.2928
1360.88 12.4828
1363.53 10.7423
1366.18 9.56632
1368.83 8.72284
1374.13 7.59789
1379.43 6.88475
1384.72 6.39334
1390.02 6.03439
1400.62 5.54486
1411.22 5.22585
1421.82 5.00053
1432.42 4.83211
1453.61 4.59483
1474.81 4.43293
1517.20 4.21804
1559.59 4.07213
1601.99 3.95724
1644.38 3.85647
1665.57 3.80853
1676.17 3.78595
1681.47 3.77970
1682.80 3.78263
1684.12 3.79640
1684.78 3.81805
1685.45 3.88100
1685.78 3.96762
1685.94 4.05293
1686.11 4.20425
1686.27 4.51671
1686.36 4.81406
1686.44 5.31976
1686.52 6.31436
1686.56 7.22174
1686.60 8.65993
1686.65 11.2790
1686.67 13.4275
1686.69 16.4182
1686.71 21.2316
1686.73 28.6242
1686.75 41.8592
1686.77 64.0921
1686.79 101.033
1686.81 124.469
1686.83 101.035
1686.85 64.0939
1686.87 46.2982
1686.89 34.6233
1686.90 26.8386
1686.92 21.5233
1686.95 15.0802
1686.98 11.5405
1687.01 9.35855
1687.04 8.00844
1687.10 6.43824
1687.16 5.58760
1687.22 5.09136
1687.34 4.55216
1687.46 4.28402
1687.58 4.13164
1687.82 3.97425
