In-115(n,g) ENDF/B-VII.1
Energy(eV) XS(b)
1.00000E-05 9821.31
1.25000E-05 8784.48
1.50000E-05 8019.12
2.00000E-05 6944.81
2.75000E-05 5922.61
3.50000E-05 5249.89
4.25000E-05 4764.25
5.00000E-05 4392.46
6.25000E-05 3928.80
7.50000E-05 3586.55
0.000100000 3106.15
0.000125000 2778.32
0.000150000 2536.33
0.000200000 2196.68
0.000275000 1873.52
0.000350000 1660.87
0.000425000 1507.37
0.000500000 1389.86
0.000625000 1243.34
0.000750000 1135.20
0.00100000 983.448
0.00125000 879.921
0.00150000 803.526
0.00200000 696.346
0.00275000 594.450
0.00350000 527.460
0.00425000 479.150
0.00500000 442.205
0.00625000 396.192
0.00750000 362.288
0.0100000 314.821
0.0125000 282.547
0.0150000 258.812
0.0200000 225.679
0.0253000 202.122
0.0314750 182.766
0.0376500 168.545
0.0500000 148.801
0.0625000 135.457
0.0750000 125.872
0.100000 113.010
0.125000 104.861
0.150000 99.3755
0.200000 92.9589
0.275000 89.5317
0.350000 90.3547
0.500000 100.871
0.625000 119.085
0.750000 150.166
0.875000 204.558
0.937500 247.590
1.00000 309.105
1.05244 383.567
1.10488 492.574
1.15731 661.346
1.20975 943.158
1.23597 1160.87
1.26219 1466.78
1.28841 1915.30
1.31463 2609.04
1.34084 3758.63
1.36706 5840.87
1.38017 7552.16
1.39328 10050.5
1.40639 13783.2
1.41950 19355.0
1.43825 30766.2
1.45700 38197.3
1.47575 30348.0
1.49450 18843.9
1.51030 12413.8
1.52609 8486.36
1.54189 6058.67
1.55769 4497.50
1.58928 2719.51
1.62088 1801.74
1.65247 1273.37
1.68406 943.738
1.74725 573.374
1.81044 382.310
1.87363 271.663
1.93681 202.186
2.00000 155.879
2.11308 104.539
2.22616 74.6723
2.33924 55.9206
2.45233 43.4846
2.67849 28.8381
2.90465 21.4391
3.13081 18.3927
3.35698 20.4197
3.47006 25.9176
3.52660 31.5835
3.58314 41.4756
3.63968 60.3770
3.66795 76.7785
3.69622 102.311
3.72449 144.812
3.75276 222.011
3.76690 285.516
3.78103 378.243
3.79517 516.743
3.80930 723.406
3.82965 1150.68
3.85000 1433.04
3.87035 1144.38
3.89070 715.383
3.90803 472.541
3.92537 324.622
3.94270 233.382
3.96003 174.770
3.99470 108.011
4.02936 73.4734
4.06403 53.5052
4.09869 40.9758
4.16803 26.7470
4.23736 19.2634
4.30669 14.8243
4.44535 9.98368
4.58401 7.48505
4.72268 5.99163
5.00000 4.31503
5.44100 3.05985
5.88200 2.47473
6.32300 2.22842
6.54350 2.21964
6.76400 2.46181
6.85300 2.74614
6.94200 2.54407
7.20290 2.55181
7.46380 2.95583
7.72470 3.71544
7.98560 5.16078
8.24650 8.25109
8.37695 11.2681
8.50740 16.6080
8.63785 27.4167
8.70308 37.5358
8.76830 54.7248
8.83353 87.4218
8.86614 116.073
8.89875 161.385
8.93136 238.796
8.94767 299.503
8.96398 385.430
8.98028 511.480
8.99659 703.594
9.01289 1006.62
9.02920 1488.10
9.04960 2379.06
9.07000 2971.18
9.08020 2794.55
9.09040 2373.55
9.11080 1481.29
9.12469 1058.28
9.13859 773.098
9.15248 581.093
9.16638 449.002
9.19416 287.628
9.22195 198.320
9.24974 144.422
9.27753 109.628
9.33310 69.1465
9.38868 47.4932
9.44425 34.6131
9.49983 26.3492
9.55540 20.7388
9.66655 13.8365
9.77770 9.91899
9.88885 7.48788
10.0000 5.87900
10.2463 3.81392
10.4925 2.75192
10.7388 2.16747
10.9850 1.87222
11.2313 1.84095
11.4775 2.28878
11.6006 2.99926
11.6622 3.66430
11.7238 4.75304
11.7853 6.67360
11.8469 10.4451
11.8777 13.7947
11.9084 19.0604
11.9392 27.7011
11.9700 42.0826
12.0050 66.7500
12.0400 83.0969
12.0750 66.5308
12.1100 41.7882
12.1494 24.5133
12.1888 15.5041
12.2282 10.5831
12.2676 7.68564
12.3070 5.85850
12.3464 4.64026
12.4253 3.17279
12.5041 2.35717
12.5829 1.85638
12.7405 1.29408
12.8981 0.997210
13.0558 0.818762
13.3710 0.658381
13.4600 0.670850
13.5490 0.586852
13.7506 0.483669
13.9522 0.431280
14.3554 0.361270
15.1618 0.279260
16.7745 0.206340
18.3873 0.194067
19.1936 0.213633
20.0000 0.270289
20.6723 0.389655
21.0084 0.511762
21.3445 0.735286
21.5126 0.923073
21.6806 1.20823
21.8487 1.67129
22.0168 2.49719
22.1008 3.17746
22.1848 4.19291
22.2689 5.80582
22.3529 8.59443
22.4369 14.0463
22.4789 18.9651
22.5209 26.9859
22.5630 41.3253
22.5840 53.0962
22.6050 70.4987
22.6260 97.5695
22.6470 142.213
22.6680 220.528
22.6785 281.130
22.6890 362.304
22.6993 463.725
22.7095 579.650
22.7300 724.436
22.7505 579.118
22.7710 361.643
22.7844 262.148
22.7977 193.858
22.8244 114.557
22.8512 74.1956
22.8779 51.5357
22.9046 37.7263
22.9313 28.7484
22.9848 18.2306
23.0382 12.5639
23.0916 9.17679
23.1985 5.51083
23.3054 3.67753
23.4123 2.63295
23.5191 1.98222
23.6260 1.54988
23.8398 1.02929
24.0535 0.739849
24.2673 0.562542
24.4810 0.446119
24.9085 0.307558
25.3360 0.231373
26.1910 0.154935
27.0460 0.119771
27.9010 0.101897
28.7560 0.0953611
29.1835 0.103567
29.3973 0.130871
29.5041 0.181751
29.5576 0.243063
29.6110 0.365881
29.6555 0.534233
29.7000 0.646709
29.7445 0.534650
29.7890 0.366211
29.8272 0.269892
29.8654 0.211317
29.9418 0.152037
30.0182 0.125619
30.0946 0.111941
30.4002 0.0935446
31.0115 0.0883015
32.2339 0.0943767
33.4564 0.112408
34.6789 0.150186
35.9013 0.234906
36.5126 0.320283
37.1238 0.476233
37.4294 0.607563
37.7350 0.807904
38.0406 1.13573
38.3462 1.72778
38.4991 2.22187
38.6519 2.96942
38.8047 4.17908
38.9575 6.32807
39.0339 8.09198
39.1103 10.7164
39.1867 14.8673
39.2631 21.9977
39.3395 35.8010
39.3777 48.1172
39.4159 67.9705
39.4541 102.837
39.4732 130.946
39.4923 171.796
39.5114 233.818
39.5305 332.787
39.5496 498.649
39.5592 621.931
39.5687 782.126
39.5894 1250.39
39.6100 1561.99
39.6307 1249.69
39.6513 781.276
39.6660 550.656
39.6807 397.845
39.6954 296.424
39.7100 227.536
39.7394 144.416
39.7688 98.9978
39.7981 71.8003
39.8275 54.3460
39.8862 34.1396
39.9450 23.3818
40.0037 17.0012
40.0624 12.9159
40.1212 10.1477
40.2386 6.75572
40.3561 4.86156
40.4735 3.77573
40.5910 3.44275
40.6800 3.68278
40.7690 2.66591
40.8561 1.99903
40.9432 1.64754
41.1175 1.23933
41.4659 0.808975
41.8144 0.579234
42.1629 0.440414
42.8598 0.290181
43.5567 0.220712
44.2536 0.195711
44.9506 0.220647
45.2990 0.277779
45.4733 0.336709
45.6475 0.442567
45.8217 0.658638
45.9088 0.862406
45.9959 1.21176
46.0831 1.88768
46.1266 2.49165
46.1702 3.46742
46.2137 5.18937
46.2573 8.62368
46.2791 11.7418
46.3009 16.7679
46.3226 25.3087
46.3444 40.1530
46.3672 64.0916
46.3900 80.0236
46.4128 64.0647
46.4356 40.1230
46.4618 23.1293
46.4881 14.3873
46.5143 9.66374
46.5406 6.90623
46.5668 5.17975
46.5930 4.03654
46.6455 2.67498
46.6980 1.93255
46.7505 1.48840
46.8554 1.01637
46.9604 0.798438
47.0653 0.698520
47.2752 0.690655
47.4851 0.915724
47.5901 1.17914
47.6950 1.66117
47.8000 2.63668
47.8524 3.53505
47.9049 5.02447
47.9574 7.74625
47.9836 10.0289
48.0099 13.4753
48.0361 18.9900
48.0623 28.4537
48.0886 46.0315
48.1148 80.3593
48.1374 128.410
48.1600 160.389
48.1826 128.346
48.2052 80.2775
48.2192 59.1206
48.2333 44.3237
48.2613 26.7262
48.2893 17.5441
48.3174 12.3074
48.3454 9.07942
48.3735 6.96475
48.4296 4.46681
48.4856 3.10997
48.5417 2.29413
48.6539 1.40539
48.7661 0.957400
48.8783 0.700250
49.1026 0.430784
49.3270 0.299110
49.5513 0.224573
50.0000 0.146828
50.5419 0.103047
51.0839 0.0800761
52.1678 0.0573539
53.2516 0.0467703
54.3355 0.0412848
56.5033 0.0383847
57.5871 0.0408127
58.1291 0.0443018
58.4000 0.0491160
58.5355 0.0566115
58.6033 0.0661549
58.6710 0.0881203
58.7600 0.130726
58.8490 0.0897854
58.9130 0.0697596
58.9769 0.0613247
59.1048 0.0559420
59.3606 0.0559256
59.8723 0.0643482
60.3839 0.0801874
60.8956 0.109487
61.4072 0.171638
61.6630 0.232722
61.9188 0.342316
62.0467 0.433175
62.1747 0.569755
62.3026 0.788810
62.4305 1.17299
62.5584 1.94134
62.6223 2.65179
62.6863 3.84172
62.7503 6.05661
62.7822 7.95249
62.8142 10.8768
62.8462 15.6987
62.8782 24.3443
62.9101 41.5224
62.9261 56.4763
62.9421 78.4394
62.9661 125.462
62.9900 156.790
63.0140 125.414
63.0379 78.3794
63.0635 46.7505
63.0891 29.7174
63.1146 20.1873
63.1402 14.4845
63.1658 10.8518
63.1913 8.41349
63.2425 5.46471
63.2936 3.82679
63.3448 2.82796
63.4470 1.72641
63.5493 1.16593
63.6516 0.843093
63.7539 0.640516
63.8562 0.505261
64.0608 0.341747
64.2653 0.250713
64.6745 0.159004
65.0836 0.117169
65.4927 0.0960560
65.9019 0.0857691
66.3110 0.0863510
66.4000 0.0908134
66.4890 0.0865747
66.6723 0.0843193
66.8555 0.0864023
67.2220 0.0960742
67.5885 0.115215
67.9550 0.152113
68.3214 0.230377
68.5047 0.305600
68.6879 0.436140
68.8712 0.691943
68.9628 0.922950
69.0544 1.29998
69.1460 1.97438
69.1919 2.52829
69.2377 3.34809
69.2835 4.62371
69.3293 6.72916
69.3751 10.4268
69.4209 17.1333
69.4655 27.3744
69.5100 34.1910
69.5546 27.3569
69.5991 17.1114
69.6520 9.68679
69.7048 5.94270
69.7576 3.94788
69.8105 2.79362
69.8633 2.07541
69.9162 1.60167
70.0218 1.03853
70.1275 0.731003
70.2332 0.545606
70.4446 0.343518
70.6560 0.242108
70.8673 0.184553
71.2901 0.126472
71.7128 0.102407
72.1355 0.0987388
72.3469 0.108348
72.5583 0.139913
72.6640 0.178674
72.7696 0.262561
72.8225 0.344489
72.8753 0.486593
72.9282 0.753982
72.9810 1.28512
73.0255 2.01813
73.0700 2.50715
73.1145 2.01870
73.1590 1.28537
73.1947 0.888320
73.2303 0.638701
73.2659 0.480534
73.3016 0.376799
73.3729 0.256132
73.4441 0.192417
73.5867 0.131503
73.7293 0.104597
74.0144 0.0824296
74.2995 0.0743154
75.4400 0.0731363
76.5805 0.0907208
77.1508 0.109707
77.4359 0.130781
77.5784 0.159716
77.6497 0.195669
77.7210 0.279983
77.8100 0.437663
77.8990 0.289589
77.9448 0.232089
77.9907 0.201733
78.0823 0.177349
78.2656 0.172351
78.6322 0.199634
78.9988 0.250739
79.3654 0.337962
79.7319 0.507267
79.9152 0.664038
80.0985 0.934505
80.2818 1.47648
80.3735 1.98715
80.4651 2.86942
80.5568 4.60637
80.6026 6.19121
80.6484 8.81380
80.6942 13.6130
80.7172 17.6502
80.7401 23.7736
80.7630 33.6300
80.7859 50.7053
80.8088 82.8818
80.8203 109.517
80.8317 147.050
80.8413 188.174
80.8509 235.135
80.8700 293.869
80.8892 235.088
80.9083 147.000
80.9267 92.2700
80.9451 60.9222
80.9634 42.5313
80.9818 31.1536
81.0186 18.6487
81.0553 12.4034
81.0921 8.87689
81.1288 6.70592
81.2023 4.29847
81.2758 3.07775
81.3493 2.38708
81.4964 1.70755
81.6434 1.44451
81.7904 1.37946
82.0844 1.62727
82.2314 1.95444
82.3784 2.49663
82.5254 3.41197
82.6725 5.07178
82.7460 6.44487
82.8195 8.49517
82.8930 11.7457
82.9665 17.3398
83.0400 28.1861
83.0767 37.8748
83.1135 53.5076
83.1503 81.0061
83.1686 103.205
83.1870 135.483
83.2054 184.590
83.2238 263.060
83.2421 394.985
83.2605 621.061
83.2803 992.970
83.3000 1240.57
83.3198 992.703
83.3395 620.739
83.3554 418.730
83.3713 291.992
83.3871 211.817
83.4030 159.312
83.4347 98.3543
83.4665 66.2493
83.4982 47.4859
83.5300 35.6446
83.5934 22.1550
83.6569 15.0778
83.7204 10.9193
83.7839 8.27212
83.8474 6.48501
83.9744 4.29705
84.1013 3.06003
84.2283 2.29339
84.3553 1.78589
84.6092 1.17780
84.8631 0.844958
85.1171 0.660154
85.2440 0.630053
85.3075 0.656906
85.3710 0.760674
85.4600 0.994525
85.5490 0.692893
85.6393 0.501440
85.7295 0.423176
85.9100 0.352314
86.0905 0.327487
86.1808 0.343839
86.2710 0.432266
86.3600 0.590882
86.4490 0.406145
86.5084 0.317268
86.5679 0.272318
86.6868 0.229614
86.9245 0.192152
87.4000 0.154602
87.8755 0.134187
88.1133 0.132360
88.2321 0.141133
88.2916 0.155186
88.3510 0.187358
88.4400 0.256802
88.5290 0.183355
88.6191 0.138338
88.7093 0.122468
88.8895 0.110985
89.2500 0.103528
89.9709 0.101719
90.6919 0.111711
91.4129 0.139737
92.1338 0.208480
92.4943 0.279499
92.8548 0.410037
93.0350 0.519958
93.2153 0.687155
93.3955 0.959105
93.5757 1.44503
93.6659 1.84579
93.7560 2.44474
93.8461 3.39736
93.9362 5.04701
94.0263 8.27909
94.0714 11.2008
94.1165 15.9759
94.1615 24.5354
94.1841 31.5813
94.2066 42.0326
94.2291 58.3433
94.2516 85.3768
94.2742 133.135
94.2854 170.368
94.2967 220.442
94.3075 282.222
94.3184 352.782
94.3400 441.029
94.3617 352.698
94.3833 220.337
94.4053 134.691
94.4272 87.1445
94.4491 59.9107
94.4711 43.3411
94.4930 32.6603
94.5150 25.4279
94.5588 16.6034
94.6027 11.6596
94.6466 8.62637
94.7344 5.26251
94.8221 3.54176
94.9099 2.54673
94.9976 1.92050
95.0854 1.50117
95.2609 0.992179
95.4364 0.706888
95.6120 0.531113
95.7875 0.415208
96.1385 0.276681
96.4896 0.200221
96.8406 0.153657
97.1917 0.123307
97.8937 0.0880068
98.5958 0.0707237
99.2979 0.0664866
99.6490 0.0726368
100.000 0.0958684
100.183 0.128424
100.274 0.158564
100.366 0.208234
100.457 0.297805
100.548 0.481099
100.594 0.651643
100.640 0.933375
100.685 1.42838
100.731 2.32363
100.776 3.69538
100.820 4.61012
100.865 3.69642
100.909 2.32451
100.951 1.47707
100.994 0.989441
101.036 0.701532
101.078 0.522439
101.162 0.324451
101.247 0.224979
101.331 0.168348
101.416 0.133217
101.585 0.0936267
101.753 0.0728880
101.922 0.0605882
102.260 0.0471350
102.936 0.0362509
103.273 0.0349545
103.442 0.0375416
103.527 0.0428934
103.611 0.0591601
103.700 0.0874231
103.789 0.0582964
103.899 0.0387057
104.008 0.0330706
104.227 0.0294365
104.664 0.0270502
105.540 0.0250476
107.290 0.0241618
108.165 0.0252751
109.041 0.0291161
109.478 0.0342002
109.916 0.0472215
110.135 0.0633662
110.244 0.0780736
110.353 0.102416
110.463 0.147043
110.518 0.184708
110.572 0.242049
110.627 0.334852
110.682 0.496957
110.736 0.806287
110.764 1.06586
110.791 1.43412
110.836 2.27947
110.880 2.84329
110.925 2.28068
110.969 1.43585
111.022 0.825005
111.074 0.516618
111.127 0.351693
111.179 0.256384
111.232 0.196991
111.284 0.157931
111.389 0.111660
111.494 0.0866233
111.599 0.0718165
111.810 0.0564567
112.230 0.0475213
112.650 0.0503435
113.070 0.0640210
113.280 0.0785810
113.491 0.104597
113.701 0.156690
113.806 0.204504
113.911 0.283676
114.016 0.428631
114.068 0.550325
114.121 0.734537
114.174 1.03086
114.226 1.54115
114.279 2.49604
114.331 4.38128
114.376 6.99039
114.420 8.72723
114.465 6.98772
114.509 4.37797
114.557 2.61964
114.604 1.67430
114.652 1.14513
114.699 0.828380
114.747 0.626236
114.794 0.490881
114.889 0.327179
114.984 0.236210
115.079 0.180829
115.269 0.119858
115.459 0.0889693
115.649 0.0713355
116.030 0.0532834
116.790 0.0411031
117.550 0.0389208
118.310 0.0412162
119.071 0.0490080
119.451 0.0580708
119.831 0.0792272
120.021 0.104049
120.116 0.126033
120.211 0.161625
120.306 0.225194
120.401 0.355111
120.449 0.476767
120.496 0.679747
120.544 1.04211
120.591 1.71403
120.636 2.71311
120.680 3.37958
120.725 2.71510
120.769 1.71727
120.809 1.12676
120.849 0.776350
120.889 0.564948
120.929 0.431481
121.009 0.282299
121.089 0.206843
121.169 0.164198
121.249 0.138159
121.409 0.110167
121.729 0.0912678
122.049 0.0892466
122.689 0.104389
123.329 0.142013
123.969 0.224944
124.289 0.306966
124.609 0.454818
124.769 0.578078
124.929 0.764530
125.089 1.06636
125.249 1.60330
125.329 2.04467
125.409 2.70258
125.489 3.74552
125.569 5.54360
125.649 9.04280
125.689 12.1833
125.729 17.2765
125.769 26.3006
125.789 33.6406
125.809 44.3988
125.829 60.9176
125.849 87.6769
125.869 133.431
125.879 168.020
125.889 213.487
125.899 272.742
125.910 339.356
125.930 422.360
125.951 339.297
125.971 213.415
125.984 155.082
125.998 115.116
126.024 68.2517
126.051 44.2925
126.078 30.8076
126.105 22.5767
126.131 17.2198
126.185 10.9451
126.238 7.55378
126.291 5.52856
126.398 3.33191
126.505 2.23198
126.611 1.60589
126.718 1.21611
126.825 0.957459
127.038 0.647074
127.252 0.476262
127.679 0.307750
128.105 0.235225
128.532 0.203761
129.386 0.203975
129.813 0.230289
130.240 0.280364
130.667 0.369951
131.094 0.537656
131.307 0.678974
131.520 0.892729
131.734 1.23730
131.947 1.84324
132.161 3.05873
132.268 4.18389
132.374 6.07104
132.481 9.58872
132.534 12.6077
132.588 17.2639
132.641 24.9699
132.694 38.8051
132.721 50.1009
132.748 66.4563
132.774 90.6281
132.801 126.095
132.821 161.274
132.841 201.157
132.880 250.946
132.920 201.094
132.959 126.018
133.002 74.5114
133.045 47.0454
133.088 31.8072
133.131 22.7603
133.174 17.0065
133.217 13.1648
133.304 8.52592
133.390 5.95691
133.476 4.39279
133.648 2.67055
133.820 1.79498
133.992 1.29114
134.165 0.974923
134.337 0.763601
134.681 0.507558
135.026 0.364371
135.370 0.276290
135.715 0.218309
136.403 0.149251
137.092 0.111480
138.470 0.0746650
139.848 0.0600462
141.226 0.0578671
141.914 0.0631665
142.603 0.0809422
142.948 0.104572
143.120 0.126783
143.292 0.164744
143.464 0.237973
143.551 0.303326
143.637 0.408937
143.723 0.595467
143.809 0.968502
143.852 1.30887
143.895 1.85836
143.938 2.79961
143.981 4.44436
144.026 7.07431
144.070 8.82732
144.115 7.07796
144.159 4.45006
144.204 2.74747
144.249 1.80121
144.294 1.25937
144.339 0.930645
144.429 0.575804
144.520 0.402650
144.610 0.307510
144.700 0.251513
144.880 0.197700
145.060 0.187905
145.241 0.223303
145.331 0.275869
145.421 0.389088
145.466 0.495818
145.511 0.671779
145.556 0.980329
145.601 1.53452
145.646 2.39211
145.690 2.96425
145.735 2.39411
145.779 1.53804
145.808 1.15178
145.836 0.885090
145.893 0.574049
145.950 0.416443
146.007 0.330022
146.121 0.251591
146.235 0.232171
146.349 0.252296
146.463 0.331044
146.520 0.417239
146.577 0.574043
146.634 0.883092
146.663 1.14796
146.691 1.53156
146.736 2.38190
146.780 2.94887
146.825 2.38158
146.869 1.53035
146.922 0.913389
146.975 0.602483
147.027 0.437230
147.080 0.342218
147.186 0.245311
147.291 0.201583
147.502 0.169257
147.713 0.164784
148.135 0.191217
148.558 0.261599
148.769 0.324241
148.980 0.420911
149.191 0.579599
149.402 0.864889
149.507 1.10157
149.613 1.45652
149.718 2.02418
149.824 3.01497
149.929 4.98294
149.982 6.78696
150.035 9.77286
150.088 15.2549
150.114 19.8737
150.140 26.8528
150.167 38.1292
150.193 57.6795
150.220 94.5498
150.233 125.069
150.246 167.737
150.257 215.061
150.268 268.647
150.290 335.525
150.312 268.118
150.334 167.686
150.358 100.110
150.381 63.7801
150.405 43.3275
150.428 31.1264
150.451 23.3131
150.475 18.0876
150.522 11.7571
150.569 8.22921
150.615 6.08014
150.709 3.70477
150.803 2.49494
150.896 1.79732
150.990 1.35915
151.084 1.06622
151.271 0.711351
151.459 0.512931
151.646 0.391015
151.833 0.310892
152.208 0.215751
152.583 0.163953
153.333 0.113632
154.082 0.0928008
154.832 0.0850696
155.581 0.0876257
155.956 0.100856
156.144 0.130069
156.237 0.177497
156.284 0.229685
156.331 0.325139
156.376 0.468410
156.420 0.564170
156.465 0.469663
156.509 0.327567
156.570 0.213979
156.632 0.163023
156.754 0.125280
157.000 0.110527
157.490 0.124410
157.735 0.147084
157.981 0.200561
158.103 0.261148
158.226 0.391543
158.287 0.521937
158.348 0.757145
158.410 1.23025
158.440 1.64863
158.471 2.26892
158.516 3.56386
158.560 4.42748
158.605 3.56713
158.649 2.27474
158.677 1.70313
158.705 1.30547
158.760 0.833334
158.816 0.588469
158.871 0.449752
158.982 0.310320
159.093 0.247395
159.315 0.198008
159.537 0.184279
159.981 0.190581
160.425 0.218313
160.869 0.266372
161.313 0.350839
161.535 0.424821
161.757 0.560420
161.868 0.690308
161.979 0.940234
162.035 1.17202
162.090 1.56706
162.146 2.31060
162.201 3.81516
162.246 5.80988
162.290 7.14608
162.335 5.84999
162.379 3.89446
162.414 2.85206
162.449 2.20134
162.520 1.53268
162.590 1.24794
162.660 1.12219
162.801 1.06843
162.941 1.13560
163.222 1.48697
163.504 2.20385
163.644 2.81202
163.785 3.73218
163.925 5.21345
164.066 7.81516
164.136 9.92667
164.206 13.0316
164.277 17.8617
164.347 25.9491
164.417 41.0418
164.452 54.0037
164.488 73.9778
164.523 107.070
164.558 166.420
164.575 214.909
164.593 284.622
164.611 388.061
