In-113(n,tot) ENDF/B-VII.1
Energy(eV) XS(b)
1.00000E-05 599.962
1.25000E-05 537.011
1.50000E-05 490.542
2.00000E-05 425.316
2.75000E-05 363.253
3.50000E-05 322.408
4.25000E-05 292.922
5.00000E-05 270.349
6.25000E-05 242.198
7.50000E-05 221.417
0.000100000 192.249
0.000125000 172.344
0.000150000 157.651
0.000200000 137.027
0.000275000 117.405
0.000350000 104.492
0.000425000 95.1702
0.000500000 88.0346
0.000625000 79.1363
0.000750000 72.5686
0.00100000 63.3511
0.00125000 57.0622
0.00150000 52.4210
0.00200000 45.9082
0.00275000 39.7148
0.00350000 35.6415
0.00425000 32.7029
0.00500000 30.4548
0.00625000 27.6536
0.00750000 25.5882
0.0100000 22.6938
0.0125000 20.7231
0.0150000 19.2719
0.0200000 17.2418
0.0253000 15.7939
0.0314750 14.5999
0.0376500 13.7189
0.0500000 12.4875
0.0625000 11.6464
0.0750000 11.0351
0.100000 10.1974
0.125000 9.64699
0.150000 9.25817
0.200000 8.75317
0.275000 8.35358
0.350000 8.17773
0.500000 8.19521
0.750000 9.02872
1.00000 11.3067
1.19023 15.4017
1.28534 19.3508
1.38045 26.2296
1.47556 39.8192
1.52312 52.2272
1.57068 72.7562
1.61823 110.306
1.64201 141.905
1.66579 189.866
1.68957 267.176
1.71334 401.479
1.73712 655.787
1.74901 867.208
1.76090 1166.47
1.77068 1488.64
1.78045 1855.64
1.80000 2308.87
1.81955 1841.77
1.83910 1149.17
1.85921 697.241
1.87933 448.857
1.89944 307.799
1.91955 222.554
1.93966 167.895
1.95978 131.049
2.00000 86.3282
2.04160 60.7872
2.08320 45.4259
2.12480 35.5047
2.16640 28.7419
2.24960 20.3975
2.33280 15.6553
2.41600 12.7140
2.49920 10.7700
2.66560 8.45215
2.83200 7.18789
2.99840 6.43704
3.33120 5.68256
3.66400 5.47872
3.83040 5.57004
3.99680 5.88010
4.16320 6.66520
4.24640 7.46509
4.32960 8.88926
4.41280 11.7362
4.45440 14.3419
4.49600 18.6416
4.53760 26.4430
4.55840 32.9387
4.57920 42.6792
4.60000 58.1030
4.62080 84.1885
4.64160 131.617
4.66240 221.676
4.68120 352.458
4.70000 439.878
4.71880 352.744
4.73760 222.026
4.75400 146.493
4.77040 100.976
4.78680 73.1478
4.80320 55.3875
4.83600 35.2847
4.86880 24.9456
4.90160 18.9927
4.93440 15.2703
5.00000 11.0642
5.07813 8.57377
5.15625 7.22964
5.23438 6.42086
5.31250 5.89511
5.46875 5.27208
5.62500 4.92720
5.93750 4.57032
6.25000 4.39226
6.87500 4.21701
7.50000 4.13118
8.75000 4.05811
10.0000 4.07793
11.1417 4.25505
11.7125 4.49387
12.2833 4.99705
12.5687 5.45798
12.8541 6.19975
13.1395 7.47587
13.4250 9.89325
13.5677 11.9778
13.7104 15.2053
13.8531 20.5514
13.9958 30.2838
14.0671 38.4205
14.1385 50.6990
14.2098 70.4240
14.2812 104.943
14.3169 132.767
14.3526 173.366
14.3882 235.779
14.4239 338.508
14.4596 524.345
14.4774 678.513
14.4953 908.592
14.5131 1270.87
14.5309 1877.97
14.5488 2966.51
14.5666 4993.22
14.5833 8023.09
14.6000 10070.4
14.6167 8084.15
14.6334 5070.19
14.6439 3727.80
14.6544 2792.18
14.6753 1683.57
14.6963 1106.86
14.7173 778.389
14.7382 575.907
14.7592 443.199
14.8011 286.197
14.8430 200.677
14.8850 149.100
14.9688 92.6760
15.0527 64.0718
15.1365 47.5723
15.2204 37.1754
15.3042 30.1903
15.4719 21.6524
15.6396 16.8085
15.8074 13.7830
15.9751 11.7594
16.3105 9.28974
16.6459 7.88583
16.9813 7.00614
17.3167 6.41730
17.9875 5.71076
18.6584 5.35773
19.3292 5.27124
19.6646 5.36559
20.0000 5.63781
20.3777 6.42940
20.5666 7.28337
20.7555 8.88644
20.9443 12.3305
21.0388 15.7110
21.1332 21.7025
21.2276 33.7704
21.2748 44.9479
21.3220 63.6277
21.3693 98.1547
21.3929 127.420
21.4165 172.034
21.4401 244.316
21.4637 370.442
21.4755 470.157
21.4873 610.260
21.4991 810.129
21.5109 1093.79
21.5305 1757.95
21.5500 2209.15
21.5696 1777.00
21.5891 1117.63
21.6022 806.961
21.6153 595.692
21.6284 452.236
21.6416 352.819
21.6678 230.309
21.6940 161.882
21.7202 120.246
21.7465 93.1972
21.7989 61.4569
21.8514 44.3007
21.9038 34.0002
22.0087 22.7776
22.1136 17.1173
22.2185 13.8752
22.4283 10.5289
22.6381 8.99762
22.8479 8.28079
23.2675 8.18119
23.4773 8.72644
23.6870 9.84186
23.8968 11.9330
24.1066 15.9964
24.2115 19.4965
24.3164 24.8674
24.4213 33.6265
24.5262 49.1850
24.5787 61.8706
24.6311 80.5542
24.6836 109.597
24.7360 158.085
24.7622 195.413
24.7885 247.521
24.8147 323.162
24.8409 438.186
24.8671 623.853
24.8934 945.884
24.9065 1198.90
24.9196 1552.85
24.9327 2054.69
24.9458 2762.06
24.9679 4440.70
24.9900 5580.49
25.0121 4492.26
25.0342 2826.81
25.0477 2099.26
25.0612 1586.09
25.0882 969.361
25.1152 643.762
25.1422 456.407
25.1692 340.084
25.1962 263.418
25.2502 172.187
25.3042 122.180
25.3582 91.8781
25.4663 58.5374
25.5743 41.5273
25.6823 31.6663
25.7903 25.4321
25.8983 21.2424
26.1143 16.1899
26.3304 13.6582
26.4384 13.2262
26.5464 13.9444
26.6004 15.4533
26.6544 19.3122
26.6814 23.4640
26.7084 31.2581
26.7354 47.5582
26.7489 62.3830
26.7624 84.9512
26.7812 130.768
26.8000 161.920
26.8188 132.176
26.8376 86.5809
26.8532 61.0498
26.8687 45.1605
26.8843 35.1729
26.8999 28.6547
26.9310 21.0725
26.9621 17.0383
27.0244 13.0822
27.0867 11.2249
27.2112 9.47290
27.3357 8.60493
27.5848 7.66170
27.8338 7.10579
28.3319 6.43136
28.8301 6.04220
29.3282 5.83363
29.8263 5.80823
30.3244 6.09530
30.5735 6.51855
30.6980 6.99143
30.7602 7.58407
30.7914 8.28990
30.8225 9.94276
30.8600 12.9474
30.8975 10.2420
30.9379 8.64161
30.9783 8.29378
31.0591 8.45825
31.2206 9.74430
31.3822 12.1386
31.5437 16.6525
31.6245 20.4876
31.7053 26.3276
31.7860 35.7824
31.8668 52.4240
31.9072 65.8756
31.9476 85.5211
31.9880 115.712
32.0284 165.293
32.0486 202.852
32.0687 254.487
32.0889 327.985
32.1091 436.843
32.1293 606.339
32.1495 885.578
32.1697 1374.23
32.1899 2256.07
32.2100 3637.66
32.2300 4583.42
32.2501 3694.54
32.2701 2327.29
32.2914 1405.45
32.3126 904.087
32.3339 621.378
32.3552 451.072
32.3765 341.943
32.3977 268.293
32.4403 178.594
32.4828 128.282
32.5253 97.3119
32.6104 62.7338
32.6955 44.8307
32.7806 34.3409
32.8656 27.6455
32.9507 23.0980
33.1209 17.4624
33.2910 14.2083
33.4612 12.1427
33.6313 10.7394
33.9716 8.99009
34.3119 7.96710
34.6522 7.32237
34.8224 7.13743
34.9074 7.19026
34.9500 7.42394
34.9712 7.72965
34.9925 8.34219
35.0300 9.81368
35.0675 8.26020
35.0863 7.65781
35.1050 7.31199
35.1425 6.97074
35.2176 6.71087
35.3676 6.49711
35.6677 6.24415
36.2680 5.90026
37.4685 5.48001
38.6689 5.22462
39.8694 5.05042
41.0699 4.93142
41.6701 4.89679
42.2704 4.89483
42.8706 4.97246
43.1707 5.08575
43.4708 5.32220
43.7710 5.86320
43.9210 6.40981
44.0711 7.39616
44.2211 9.42949
44.2962 11.3620
44.3712 14.6953
44.4462 21.1866
44.4837 27.0201
44.5213 36.4921
44.5588 53.3167
44.5963 87.1610
44.6150 118.158
44.6338 168.495
44.6526 254.985
44.6713 407.351
44.6907 652.427
44.7100 819.501
44.7294 661.240
44.7487 418.620
44.7654 279.015
44.7820 194.025
44.7987 141.674
44.8153 108.129
44.8486 70.1080
44.8819 50.7879
44.9152 40.0630
44.9485 33.9088
45.0151 29.1710
45.0816 31.8263
45.1149 36.6973
45.1482 45.7570
45.1815 62.7173
45.2148 96.9730
45.2315 127.705
45.2481 176.124
45.2648 255.635
45.2814 387.726
45.2911 496.016
45.3007 620.646
45.3200 781.030
45.3393 632.923
45.3586 402.740
45.3767 260.153
45.3949 176.836
45.4130 127.104
45.4311 95.8743
45.4674 60.9702
45.5037 43.1350
45.5399 32.8450
45.5762 26.3653
45.6487 18.9323
45.7212 14.9510
45.7937 12.5451
45.9388 9.86130
46.0838 8.44362
46.2289 7.58633
46.5190 6.62040
46.8090 6.10031
47.0991 5.77924
47.6793 5.40633
48.2595 5.19599
48.8397 5.05942
50.0000 4.88877
50.5313 4.83870
50.7969 4.83161
50.8633 4.84082
50.9297 4.86976
50.9629 4.90413
50.9961 4.97395
51.0127 5.03702
51.0293 5.13711
51.0459 5.30271
51.0625 5.58044
51.0813 6.05616
51.1000 6.37299
51.1188 6.05362
51.1375 5.57501
51.1540 5.29574
51.1705 5.12773
51.1870 5.02480
51.2035 4.95887
51.2365 4.88333
51.2695 4.84337
51.3356 4.80343
51.4016 4.78337
51.6656 4.74708
52.1938 4.70714
53.2500 4.64576
54.3063 4.59514
54.8344 4.57482
55.0984 4.57251
55.2305 4.59146
55.2635 4.60821
55.2965 4.64207
55.3295 4.72084
55.3460 4.80046
55.3625 4.93355
55.3813 5.16254
55.4000 5.31507
55.4188 5.16140
55.4375 4.93111
55.4510 4.81665
55.4645 4.74095
55.4914 4.65669
55.5184 4.61529
55.5453 4.59233
55.6531 4.55738
55.8688 4.53928
56.3000 4.52691
56.7313 4.53204
56.9469 4.55915
57.0547 4.61663
57.1086 4.71894
57.1356 4.85049
57.1625 5.14476
57.1813 5.50019
57.2000 5.73859
57.2188 5.50773
57.2375 5.15965
57.2520 4.97816
57.2664 4.86340
57.2953 4.74460
57.3531 4.67209
57.4687 4.68228
57.5843 4.76443
57.6999 4.93450
57.8155 5.30199
57.8733 5.65698
57.9311 6.27103
57.9889 7.45674
58.0178 8.50427
58.0467 10.1674
58.0756 13.0122
58.1045 18.3853
58.1190 22.9761
58.1334 29.9201
58.1479 40.7549
58.1623 57.7534
58.1812 90.6252
58.2000 113.267
58.2189 92.3175
58.2377 59.8668
58.2506 44.2722
58.2635 33.7152
58.2764 26.5824
58.2893 21.6617
58.3150 15.6163
58.3408 12.2485
58.3666 10.2008
58.3924 8.86992
58.4439 7.30546
58.4955 6.45662
58.5470 5.94465
58.6501 5.38357
58.7532 5.10125
58.8563 4.95111
58.9594 4.91856
59.0110 5.02835
59.0367 5.20638
59.0625 5.62028
59.0813 6.14713
59.1000 6.49536
59.1188 6.12676
59.1375 5.57912
59.1526 5.27946
59.1677 5.08905
59.1979 4.88398
59.2280 4.78363
59.2582 4.72587
59.3186 4.66112
59.3789 4.62364
59.6203 4.54671
60.1031 4.47519
61.0688 4.40201
63.0000 4.30959
64.9313 4.22939
65.8969 4.19346
66.3797 4.18063
66.6211 4.18077
66.7418 4.19391
66.8022 4.22487
66.8323 4.26976
66.8625 4.38154
66.9000 4.59270
66.9375 4.38132
66.9634 4.27957
66.9892 4.23338
67.0410 4.19801
67.1444 4.18065
67.3514 4.17844
67.7652 4.20332
68.1791 4.27532
68.5929 4.45435
68.7998 4.63144
69.0068 4.92853
69.2137 5.45680
69.4206 6.48230
69.5241 7.37696
69.6275 8.76747
69.7310 11.0689
69.8345 15.2244
69.9379 23.7555
69.9897 31.7644
70.0414 45.2929
70.0931 70.5869
70.1190 92.2347
70.1448 125.502
70.1707 179.920
70.1966 276.001
70.2095 352.823
70.2224 461.801
70.2354 618.991
70.2483 844.749
70.2692 1363.35
70.2900 1721.15
70.3109 1392.79
70.3317 881.599
70.3556 515.233
70.3795 324.673
70.4035 220.737
70.4274 159.521
70.4513 120.892
70.4752 95.0995
70.5231 63.9983
70.5709 46.7028
70.6187 36.1048
70.7144 24.3030
70.8101 18.1943
70.9058 14.6084
71.0014 12.3131
71.0971 10.7494
71.2885 8.80467
71.4798 7.68528
71.6712 7.03030
71.7668 6.94584
71.8147 7.17508
71.8386 7.55105
71.8625 8.39578
71.9000 10.2825
71.9375 8.24304
71.9549 7.49525
71.9723 7.04594
72.0070 6.57991
72.0766 6.20582
72.2156 5.89505
72.4938 5.55815
73.0500 5.17128
73.6063 4.95019
73.8844 4.89022
74.0234 4.91380
74.0582 4.94889
74.0930 5.02579
74.1277 5.21522
74.1451 5.41431
74.1625 5.75749
74.1813 6.32593
74.2000 6.70409
74.2188 6.32049
74.2375 5.74641
74.2602 5.32396
74.2828 5.11225
74.3281 4.93388
74.3734 4.86555
74.4188 4.83358
74.5094 4.81210
74.6000 4.82478
74.6906 4.88412
74.7359 4.94903
74.7813 5.06385
74.8266 5.28284
74.8719 5.75850
74.8945 6.22571
74.9172 7.04051
74.9399 8.58742
74.9625 11.6937
74.9813 15.9270
75.0000 18.7475
75.0188 15.9237
75.0375 11.6849
75.0513 9.53849
75.0651 8.13602
75.0789 7.21616
75.0927 6.59697
75.1203 5.85590
75.1479 5.45304
75.1755 5.21182
75.2030 5.05619
75.2582 4.87348
75.3134 4.77292
75.3686 4.71034
75.4789 4.63648
75.6996 4.56245
75.9203 4.51912
76.8031 4.41177
78.5688 4.26741
80.3344 4.14871
82.1000 4.03477
83.8656 3.91646
85.6313 3.79398
86.5141 3.73950
87.3969 3.70959
88.2797 3.76422
88.7211 3.89924
88.9418 4.10852
89.0522 4.49828
89.1073 5.20010
89.1349 6.12150
89.1625 8.22611
89.1813 10.7335
89.2000 12.4097
89.2188 10.7634
89.2375 8.28491
89.2555 6.74871
89.2735 5.87502
89.3094 5.06149
89.3814 4.59893
89.5252 4.54009
89.8130 4.99010
90.1007 5.93120
90.3885 7.81206
90.5323 9.47085
90.6762 12.0657
90.8201 16.3880
90.9639 24.2520
91.0359 30.7889
91.1078 40.5688
91.1797 56.0618
91.2517 82.5495
91.2876 103.376
91.3236 133.016
91.3596 177.055
91.3955 246.121
91.4315 362.365
91.4675 576.565
91.4855 755.242
91.5034 1019.08
91.5214 1418.67
91.5394 2024.52
91.5647 3267.97
91.5900 4122.43
91.6153 3328.94
91.6406 2100.91
91.6612 1421.40
91.6818 995.448
91.7024 726.071
91.7230 549.725
91.7642 344.613
91.8054 236.193
91.8466 172.518
91.8878 132.115
91.9703 85.7445
92.0527 61.2054
92.1351 46.7370
92.2999 31.6333
92.4647 25.6083
92.5471 25.1189
92.6296 26.9799
92.7120 33.4201
92.7532 40.2729
92.7944 52.2529
92.8356 74.7462
92.8562 93.6992
92.8768 122.161
92.8974 167.016
92.9077 199.375
92.9180 241.753
92.9283 298.102
92.9386 374.019
92.9489 477.008
92.9592 615.627
92.9694 792.919
92.9796 998.635
93.0000 1271.58
93.0102 1209.66
93.0204 1040.24
93.0408 667.330
93.0647 393.183
93.0886 251.361
93.1125 174.189
93.1364 128.695
93.1604 99.8951
93.1843 80.5719
93.2321 57.0547
93.2799 43.7708
93.3277 35.4773
93.4234 25.9578
93.5190 20.7861
93.6146 17.5866
93.8059 13.8673
93.9972 11.7718
94.1885 10.4204
94.5710 8.76381
94.9536 7.77470
95.3361 7.11041
96.1012 6.26380
96.8663 5.74037
97.6314 5.40220
98.0140 5.31767
98.2052 5.32421
98.3965 5.40788
98.5878 5.68306
98.6834 5.99635
98.7791 6.59126
98.8747 7.85305
98.9225 9.05644
98.9703 11.1064
99.0182 14.9661
99.0421 18.2831
99.0660 23.3978
99.0899 31.7869
99.1138 46.6568
99.1377 75.5248
99.1497 100.039
99.1616 135.360
99.1712 173.042
99.1808 216.530
99.2000 272.999
99.2192 222.023
99.2384 142.214
99.2503 106.765
99.2622 81.8045
99.2860 51.9024
99.3098 36.1549
99.3336 27.0888
99.3574 21.4531
99.3812 17.7279
99.4288 13.2744
99.4764 10.8139
99.5240 9.30858
99.6192 7.62676
99.7144 6.74634
99.8096 6.22006
100.000 5.63350
100.241 5.25766
100.482 5.04433
100.963 4.82012
101.445 4.75948
101.926 4.91664
102.167 5.15836
102.408 5.62397
102.648 6.52869
102.889 8.39584
103.009 10.0811
103.130 12.7547
103.250 17.2618
103.371 25.5292
103.431 32.4347
103.491 42.7803
103.551 59.1516
103.611 87.0233
103.641 108.799
103.672 139.574
103.702 184.834
103.732 254.785
103.762 369.888
103.792 574.824
103.807 740.374
103.822 975.300
103.837 1316.34
103.852 1809.95
103.876 2946.74
103.900 3745.55
103.924 3034.51
103.948 1919.42
103.973 1171.04
103.998 761.744
104.023 528.740
104.049 387.268
104.074 296.011
104.099 234.064
104.149 158.063
104.199 114.996
104.249 88.3368
104.350 58.2594
104.450 42.4659
104.551 33.1080
104.651 27.0667
104.752 22.9185
104.952 17.7020
105.153 14.6342
105.354 12.6544
105.555 11.2898
105.957 9.55600
106.359 8.52308
106.760 7.88491
106.961 7.78820
107.011 7.86694
107.062 8.11019
107.087 8.38256
107.112 8.89310
107.137 9.93362
107.150 10.8540
107.162 12.2045
107.181 15.1713
107.200 17.1685
107.219 15.1345
107.238 12.1297
107.261 9.92160
107.285 8.82986
107.308 8.24933
107.331 7.90858
107.378 7.54036
107.424 7.34682
107.518 7.13595
107.611 7.00830
107.983 6.69376
108.729 6.29772
110.219 5.81854
111.710 5.52248
113.200 5.31049
114.691 5.14130
116.181 4.99311
117.672 4.85329
118.417 4.79137
118.790 4.79077
118.883 4.81446
118.976 4.88551
119.023 4.97327
119.069 5.16628
119.093 5.35785
119.116 5.69561
119.139 6.34597
119.163 7.67023
119.181 9.45117
119.200 10.6292
119.219 9.43823
119.238 7.66402
119.260 6.34706
119.283 5.69424
119.306 5.35011
119.329 5.15254
119.375 4.94728
119.420 4.84861
119.512 4.75788
119.603 4.71593
119.969 4.64873
120.700 4.60801
121.066 4.63378
121.431 4.73996
121.797 5.05809
121.980 5.43813
122.071 5.82759
122.117 6.24321
122.163 7.37938
122.200 8.99432
122.238 7.74282
122.266 7.16668
122.295 7.04102
122.352 7.25640
122.467 8.41583
122.582 10.5418
122.696 14.5139
122.811 22.8740
122.868 30.8615
122.926 44.4941
122.954 55.1991
122.983 70.3736
123.012 92.7700
123.040 127.382
123.069 184.793
123.098 287.259
123.112 370.798
123.126 490.000
123.141 664.250
123.155 918.427
123.178 1497.18
123.200 1906.17
123.223 1546.03
123.245 979.256
123.266 628.244
123.287 424.330
123.308 302.549
123.330 226.018
123.372 140.276
123.414 96.5922
123.456 71.3688
123.499 55.5683
123.583 37.5219
123.668 27.9596
123.752 22.2525
123.837 18.5538
123.921 16.0072
124.090 12.7982
124.259 10.9067
124.428 9.68465
124.597 8.84190
124.935 7.77004
125.273 7.12734
125.611 6.70320
125.949 6.40390
126.625 6.00992
127.301 5.76112
127.977 5.58769
128.652 5.45784
130.004 5.27071
130.680 5.19975
131.356 5.14239
132.032 5.11071
132.370 5.12016
132.708 5.17662
132.877 5.24352
133.046 5.36369
133.215 5.58694
133.384 6.03221
133.468 6.42569
133.553 7.04056
133.637 8.06059
133.722 9.89954
133.806 13.6457
133.849 17.1291
133.891 22.9184
133.933 33.5283
133.954 42.3701
133.975 55.6215
133.997 76.5320
134.018 111.614
134.039 174.468
134.049 224.286
134.060 291.326
134.080 470.219
134.100 595.363
134.120 484.096
134.140 308.665
134.156 212.410
134.172 151.388
134.189 112.460
134.205 86.9010
134.237 56.7802
134.269 40.6853
134.301 31.1320
134.333 25.0472
134.397 17.9959
134.462 14.2051
134.526 11.9312
134.590 10.4519
134.654 9.43151
134.783 8.14402
134.911 7.38592
135.040 6.89697
135.168 6.56040
135.425 6.13302
135.682 5.87701
135.939 5.70781
136.196 5.58801
136.710 5.42906
137.224 5.32721
138.251 5.20039
139.279 5.12050
140.307 5.06262
141.335 5.01768
141.849 5.00175
141.977 5.00093
142.106 5.00635
142.170 5.01631
142.234 5.04222
142.266 5.07112
142.298 5.12813
142.330 5.25765
142.347 5.38670
142.363 5.59776
142.381 5.97040
142.400 6.21687
142.419 5.96710
142.438 5.59531
142.458 5.34355
142.478 5.20837
142.518 5.08657
142.558 5.03706
142.598 5.01236
142.678 4.98874
142.758 4.97731
143.078 4.95705
143.719 4.93417
144.359 4.91478
145.000 4.89744
145.640 4.88430
145.961 4.88222
146.281 4.88876
146.601 4.91961
146.761 4.95940
146.922 5.04112
147.002 5.11435
147.082 5.22963
147.162 5.42202
147.242 5.77000
147.322 6.48242
147.362 7.14457
147.402 8.24881
147.442 10.2761
147.462 11.9674
147.482 14.5045
147.502 18.5118
147.522 25.2425
147.542 37.3166
147.562 59.7933
147.581 94.1062
147.600 118.132
147.619 96.9166
147.638 63.3077
147.650 48.1835
147.662 37.5516
147.686 24.8460
147.709 18.1712
147.733 14.3336
147.757 11.9496
147.781 10.3742
147.828 8.49091
147.876 7.45057
147.924 6.81438
148.019 6.10542
148.114 5.73578
148.209 5.51682
148.304 5.37516
148.399 5.27749
148.590 5.15326
148.780 5.07873
149.161 4.99424
149.541 4.94722
149.922 4.91654
150.683 4.87690
151.445 4.85035
152.206 4.82983
153.729 4.79751
156.774 4.74766
159.819 4.70605
165.910 4.63216
172.000 4.56083
178.091 4.48353
184.181 4.38887
187.226 4.32843
190.272 4.25186
191.794 4.20409
193.317 4.14706
194.078 4.11480
194.840 4.08389
195.220 4.07684
195.411 4.08215
195.601 4.10396
195.791 4.17006
195.886 4.24535
195.982 4.38981
196.077 4.70129
196.124 5.00209
196.172 5.51805
196.219 6.50094
196.243 7.35214
196.267 8.67244
196.291 10.8522
196.315 14.7453
196.338 22.3732
196.350 28.9041
196.362 38.2781
196.381 59.9899
196.400 75.2679
196.419 62.0101
196.438 40.9508
196.452 30.0466
196.466 22.9039
196.480 18.1802
196.494 14.9729
196.522 11.0890
196.549 8.96387
196.577 7.67710
196.605 6.84614
196.661 5.86849
196.716 5.33400
196.772 5.00908
196.883 4.64533
196.995 4.45310
197.106 4.33662
197.329 4.20304
197.774 4.07641
198.219 4.00787
199.110 3.92665
199.555 3.91531
200.000 3.98517
200.141 4.07866
200.281 4.32712
200.352 4.63318
200.387 4.90711
200.422 5.34778
200.457 6.12501
200.492 7.66148
200.510 9.05110
200.527 11.2609
200.545 14.9986
200.562 21.3778
200.581 31.9326
200.600 38.9249
