Ba-135(n,tot) ENDF/B-VII.1
Energy(eV) XS(b)
1.00000E-05 298.064
1.25000E-05 266.886
1.50000E-05 243.871
2.00000E-05 211.566
2.75000E-05 180.827
3.50000E-05 160.598
4.25000E-05 145.994
5.00000E-05 134.813
6.25000E-05 120.870
7.50000E-05 110.578
0.000100000 96.1300
0.000125000 86.2706
0.000150000 78.9927
0.000200000 68.7768
0.000275000 59.0565
0.000350000 52.6593
0.000425000 48.0410
0.000500000 44.5055
0.000625000 40.0962
0.000750000 36.8414
0.00100000 32.2727
0.00125000 29.1549
0.00150000 26.8534
0.00200000 23.6227
0.00275000 20.5488
0.00350000 18.5258
0.00425000 17.0653
0.00500000 15.9472
0.00625000 14.5527
0.00750000 13.5234
0.0100000 12.0785
0.0125000 11.0923
0.0150000 10.3644
0.0200000 9.34246
0.0253000 8.60985
0.0314750 8.00213
0.0376500 7.55079
0.0500000 6.91365
0.0625000 6.47209
0.0750000 6.14600
0.100000 5.68795
0.125000 5.37504
0.150000 5.14379
0.200000 4.81860
0.275000 4.50814
0.350000 4.30286
0.500000 4.03926
0.750000 3.78769
1.00000 3.63432
1.50000 3.44584
2.00000 3.32723
2.75000 3.20628
3.50000 3.11949
5.00000 2.99454
7.50000 2.85121
10.0000 2.74593
12.5000 2.66550
15.0000 2.61562
17.5000 2.63861
18.7500 2.72792
20.0000 2.97089
20.5386 3.18333
21.0773 3.53221
21.6159 4.14120
22.1546 5.30690
22.4239 6.31779
22.6932 7.88809
22.9625 10.4971
23.2318 15.2609
23.3665 19.2518
23.5012 25.2853
23.6358 34.9980
23.7705 52.0399
23.8378 65.8075
23.9051 85.9398
23.9725 116.976
24.0398 168.275
24.1071 261.582
24.1408 339.449
24.1745 456.366
24.2081 641.869
24.2418 956.043
24.2754 1528.18
24.3091 2616.28
24.3396 4201.59
24.3700 5271.93
24.4005 4233.92
24.4309 2657.20
24.4559 1784.95
24.4808 1241.48
24.5058 899.871
24.5308 677.168
24.5807 419.615
24.6307 284.323
24.6806 205.312
24.7305 155.398
24.8304 98.4173
24.9303 68.4022
25.0302 50.6763
25.1301 39.3343
25.2299 31.6341
25.4297 22.1318
25.6295 16.6971
25.8292 13.2891
26.0290 11.0054
26.4285 8.21695
26.8280 6.63233
27.2275 5.63854
27.6270 4.96974
28.4261 4.14387
29.2251 3.66382
30.0242 3.35388
30.8232 3.13797
32.4213 2.85545
34.0193 2.67487
37.2155 2.44353
43.6077 2.15663
50.0000 1.93048
57.9681 1.65806
61.9522 1.52779
65.9363 1.43263
69.9203 1.48777
71.9124 1.69681
73.9044 2.25475
74.9004 2.81951
75.8964 3.77444
76.8924 5.47783
77.3904 6.83956
77.8884 8.78523
78.3865 11.6693
78.8845 16.1548
79.3825 23.5979
79.8805 37.1324
80.1295 48.4148
80.3785 65.3842
80.6275 92.5157
80.8765 139.669
81.0010 177.420
81.1255 232.154
81.2500 315.608
81.3745 451.491
81.4990 693.290
81.5613 890.636
81.6235 1180.70
81.6858 1627.58
81.7480 2354.64
81.8103 3605.28
81.8725 5813.55
81.9363 9330.02
82.0000 11694.1
82.0638 9379.85
82.1275 5878.97
82.1991 3429.79
82.2708 2147.78
82.3424 1445.47
82.4140 1031.18
82.4856 769.735
82.5573 595.392
82.7005 385.725
82.8437 269.767
82.9870 199.151
83.2735 121.265
83.5600 81.5671
83.8465 58.6970
84.1330 44.4584
84.4195 35.2268
84.9924 26.0337
85.2789 25.5888
85.4222 26.8126
85.5654 29.4949
85.6371 31.5985
85.7087 34.3891
85.7803 38.0669
85.8161 40.3216
85.8519 42.9116
85.8878 45.8924
85.9236 49.3287
85.9952 57.9125
86.0668 69.5685
86.1384 85.7190
86.2101 108.698
86.2817 142.511
86.3533 194.503
86.4249 279.173
86.4965 428.069
86.5324 547.263
86.5682 718.516
86.6040 973.691
86.6398 1369.25
86.6756 2005.00
86.7114 3037.05
86.7557 4978.47
86.8000 6377.77
86.8443 5230.81
86.8886 3352.87
86.9398 1978.69
86.9910 1259.35
87.0423 864.638
87.0935 630.693
87.1447 482.030
87.1959 382.069
87.2983 260.282
87.4008 191.554
87.5032 148.807
87.7081 100.166
87.9129 74.2002
88.1178 58.4763
88.5275 40.8012
88.9373 31.3173
89.3470 25.4719
90.1665 18.6915
90.9859 14.8913
91.8054 12.4645
93.4443 9.56237
95.0832 7.94822
96.7222 7.07769
98.3611 6.96023
99.1805 7.38487
100.000 8.49146
100.483 9.75048
100.966 11.8615
101.449 15.5649
101.932 22.5899
102.174 28.5867
102.415 37.7311
102.657 52.5142
102.898 78.4094
103.019 99.2116
103.140 129.349
103.260 175.233
103.381 249.444
103.502 380.104
103.562 485.354
103.623 637.637
103.683 868.123
103.743 1233.23
103.804 1838.50
103.864 2857.46
103.932 4619.45
104.000 5840.38
104.068 4735.90
104.136 3030.88
104.186 2192.27
104.235 1683.82
104.285 1448.86
104.334 1537.64
104.400 2015.68
104.466 1202.87
104.489 958.596
104.513 786.868
104.559 573.415
104.606 449.362
104.653 368.719
104.746 268.853
104.839 208.894
105.026 140.297
105.212 102.749
105.399 79.5694
105.586 64.1262
105.959 45.3015
106.332 34.5859
106.705 27.8455
107.452 20.0610
108.198 15.8277
108.944 13.2251
110.437 10.2465
111.930 8.61217
113.422 7.58414
116.408 6.35743
119.393 5.64118
122.379 5.16404
128.350 4.55435
134.320 4.17014
140.291 3.89852
152.233 3.52562
164.175 3.26582
176.117 3.05825
188.058 2.87090
200.000 2.67490
204.734 2.58404
209.468 2.47516
211.835 2.40976
213.019 2.37376
214.202 2.33653
215.386 2.30268
215.978 2.29230
216.569 2.29602
217.161 2.34033
217.457 2.40313
217.753 2.53584
218.049 2.84681
218.197 3.16711
218.345 3.75127
218.493 4.95953
218.567 6.09656
218.641 8.01255
218.715 11.5840
218.752 14.6216
218.788 19.2419
218.825 26.7275
218.862 39.7185
218.881 49.9126
218.899 64.1456
218.918 84.2717
218.936 112.387
218.952 144.506
218.968 181.381
219.000 229.550
219.016 217.744
219.032 186.838
219.064 119.497
219.094 77.2505
219.124 52.6102
219.154 37.9368
219.184 28.7640
219.245 18.5061
219.305 13.2786
219.365 10.2705
219.426 8.39033
219.546 6.25655
219.667 5.13776
219.788 4.48344
220.029 3.80485
220.270 3.51389
220.511 3.41857
220.994 3.64227
221.235 4.00253
221.477 4.64594
221.718 5.80119
221.959 8.01017
222.080 9.90125
222.200 12.7823
222.321 17.4325
222.442 25.5476
222.502 32.0457
222.562 41.4062
222.623 55.5377
222.683 78.1522
222.743 117.219
222.773 148.143
222.803 191.975
222.834 256.758
222.864 355.510
222.894 512.195
222.924 760.764
222.962 1227.76
223.000 1551.08
223.039 1255.18
223.077 793.046
223.116 492.642
223.155 324.112
223.193 226.690
223.232 166.907
223.271 128.058
223.310 101.546
223.387 68.8535
223.465 50.2714
223.543 38.7101
223.698 25.6479
223.853 18.7810
224.008 14.7092
224.163 12.0796
224.318 10.2762
224.629 8.00970
224.939 6.67851
225.249 5.82002
225.560 5.22819
226.180 4.47582
226.801 4.02381
227.422 3.72454
228.042 3.51222
229.283 3.23014
230.525 3.04897
233.007 2.82135
235.490 2.67326
237.972 2.55948
239.214 2.51131
239.834 2.49116
240.455 2.47787
241.076 2.48423
241.386 2.50762
241.696 2.56681
242.007 2.71926
242.162 2.88311
242.317 3.18904
242.472 3.83495
242.550 4.45138
242.627 5.50178
242.705 7.48661
242.744 9.19585
242.782 11.8352
242.821 16.1695
242.860 23.8587
242.899 38.7878
242.918 51.4636
242.937 69.6042
242.953 89.1976
242.969 111.696
243.000 141.257
243.031 115.333
243.063 74.1513
243.082 55.6918
243.102 42.7418
243.140 27.1852
243.179 18.9661
243.218 14.2216
243.257 11.2656
243.296 9.30780
243.373 6.96157
243.451 5.66048
243.528 4.86413
243.684 3.97310
243.839 3.50665
243.994 3.22901
244.305 2.92241
244.615 2.76060
244.926 2.66129
245.547 2.54417
246.168 2.47436
246.789 2.42515
248.030 2.35398
250.514 2.25055
252.998 2.16228
257.966 1.99003
262.934 1.80525
265.418 1.70798
267.902 1.61393
270.386 1.54206
272.869 1.55168
274.111 1.63885
275.353 1.85388
276.595 2.33682
277.837 3.44034
278.458 4.49449
279.079 6.22834
279.700 9.25373
280.321 15.0047
280.632 19.9333
280.942 27.4711
281.253 39.6871
281.563 61.1056
281.718 78.2910
281.874 103.132
282.029 140.765
282.184 201.139
282.339 305.880
282.495 507.077
282.572 681.758
282.650 949.896
282.727 1375.93
282.805 2058.45
282.903 3346.49
283.000 4249.93
283.098 3454.35
283.195 2193.91
283.257 1619.69
283.319 1218.89
283.443 742.607
283.567 494.056
283.691 351.752
283.815 263.593
283.938 205.444
284.186 136.052
284.434 97.7788
284.682 74.3971
285.177 48.3510
285.673 34.8110
286.169 26.8068
286.664 21.6424
287.160 18.0924
288.151 13.6147
289.142 10.9630
290.133 9.23747
291.125 8.03628
293.107 6.48518
295.089 5.52852
297.072 4.87327
299.054 4.38654
303.019 3.66849
305.001 3.36780
306.983 3.07499
308.966 2.77694
309.957 2.63345
310.948 2.52613
311.444 2.51514
311.939 2.57589
312.435 2.79436
312.931 3.39207
313.178 4.00487
313.426 5.04855
313.674 6.91833
313.798 8.41322
313.922 10.5432
314.046 13.6800
314.170 18.4996
314.293 26.3274
314.417 40.0360
314.479 51.0010
314.541 66.7553
314.603 90.4592
314.665 127.988
314.727 191.926
314.789 310.864
314.820 410.948
314.851 559.119
314.882 785.569
314.913 1130.02
314.956 1847.00
315.000 2359.10
315.044 1928.93
315.087 1232.51
315.118 885.405
315.149 652.204
315.179 494.785
315.210 386.785
315.271 254.199
315.332 180.283
315.394 135.241
315.455 105.841
315.578 71.0502
315.700 51.9651
315.823 40.3173
315.945 32.6499
316.068 27.3139
316.313 20.5040
316.558 16.4435
316.804 13.7993
317.049 11.9652
317.539 9.61975
318.029 8.20611
318.520 7.27079
319.010 6.60973
319.991 5.74021
320.971 5.19360
321.952 4.81621
322.933 4.53789
324.894 4.14885
326.855 3.88304
330.778 3.52546
334.701 3.27809
338.623 3.08238
346.469 2.75669
354.314 2.44802
358.237 2.28118
362.159 2.09545
366.082 1.88345
368.043 1.76983
370.005 1.66563
371.966 1.62931
372.947 1.70383
373.927 1.96753
374.418 2.25903
374.908 2.77242
375.398 3.71591
375.889 5.58411
376.134 7.22411
376.379 9.77066
376.624 13.9566
376.869 21.3928
376.992 27.4167
377.115 36.1909
377.237 49.5746
377.360 71.2153
377.482 109.123
377.544 139.412
377.605 182.900
377.666 247.700
377.728 348.236
377.789 510.106
377.850 772.935
377.925 1261.41
378.000 1608.56
378.075 1313.08
378.150 837.632
378.201 608.088
378.252 451.286
378.303 344.521
378.354 270.447
378.455 178.642
378.557 126.956
378.659 95.2413
378.760 74.4822
378.964 49.8329
379.167 36.2716
379.371 27.9914
379.778 18.7424
380.184 13.9027
380.591 11.0189
380.998 9.14161
381.405 7.83889
382.219 6.17043
383.033 5.15954
384.660 4.00268
386.288 3.35537
387.915 2.93764
391.170 2.45828
392.798 2.36769
394.425 2.42674
396.053 2.76976
397.680 3.75618
398.494 4.77045
399.308 6.49159
400.121 9.55823
400.935 15.4596
401.342 20.5353
401.749 28.2922
402.156 40.8079
402.563 62.5307
402.969 104.358
403.173 140.983
403.376 198.317
403.580 294.199
403.783 468.239
403.885 610.750
403.987 817.430
404.088 1123.13
404.190 1574.45
404.345 2573.97
404.500 3288.08
404.656 2688.45
404.811 1717.09
404.920 1236.18
405.028 911.365
405.137 692.405
405.246 541.552
405.463 356.167
405.680 252.642
405.898 189.425
406.115 148.127
406.550 99.1723
406.985 72.2727
407.419 55.8332
407.854 44.9984
408.289 37.4462
409.158 27.8006
410.027 22.0386
410.897 18.2798
411.766 15.6674
413.505 12.3198
415.244 10.2941
416.982 8.94747
418.721 7.98925
422.198 6.70660
425.676 5.85198
427.415 5.49641
428.284 5.32441
429.153 5.15277
430.023 4.98669
430.457 4.91795
430.892 4.88787
431.109 4.90973
431.327 4.98708
431.544 5.17794
431.761 5.62386
431.870 6.04766
431.979 6.73488
432.088 7.90571
432.196 10.0465
432.305 14.4104
432.359 18.4039
432.413 24.9075
432.468 36.3560
432.495 45.5090
432.522 58.5733
432.549 78.0266
432.576 107.875
432.604 155.592
432.631 231.937
432.648 300.688
432.665 380.552
432.700 489.504
432.717 468.055
432.735 404.742
432.769 262.731
432.801 174.988
432.832 122.094
432.864 89.7357
432.895 69.0182
432.958 45.3716
433.021 33.0267
433.084 25.7696
433.147 21.1463
433.273 15.7623
433.399 12.8344
433.525 11.0479
433.651 9.86455
433.777 9.03263
434.029 7.95317
434.280 7.29132
434.532 6.84644
434.784 6.52705
435.288 6.09691
435.791 5.81678
436.799 5.46162
437.806 5.23309
438.813 5.06431
440.828 4.81400
444.857 4.45940
448.886 4.17500
452.916 3.89822
454.930 3.74554
456.945 3.57021
457.952 3.46976
458.960 3.35871
459.967 3.23803
460.974 3.11947
461.478 3.07510
461.982 3.06380
462.485 3.13413
462.989 3.41575
463.241 3.73878
463.493 4.31777
463.744 5.39528
463.996 7.54441
464.122 9.43463
464.248 12.3608
464.374 17.1412
464.437 20.7131
464.500 25.5354
464.563 32.2454
464.626 41.8627
464.689 56.2631
464.752 78.8764
464.815 116.882
464.878 186.019
464.909 242.836
464.941 325.369
464.972 447.636
465.004 627.810
465.052 1032.90
465.100 1327.48
465.148 1092.74
465.197 703.743
465.231 508.213
465.265 376.047
465.299 286.923
465.333 225.448
465.401 149.904
465.469 107.618
465.537 81.7474
465.605 64.7954
465.740 44.6389
465.876 33.4916
466.012 26.6464
466.148 22.1078
466.284 18.9301
466.556 14.8438
466.828 12.3818
467.100 10.7636
467.372 9.63132
467.916 8.16878
468.459 7.27595
469.003 6.67911
469.547 6.25368
470.635 5.68878
471.722 5.33021
472.810 5.08112
473.897 4.89678
476.073 4.63886
478.248 4.46336
482.598 4.23103
486.949 4.07636
491.299 3.96085
500.000 3.79114
509.406 3.65661
518.811 3.54979
537.622 3.38148
556.433 3.24512
575.244 3.12234
594.055 2.99891
603.461 2.93093
612.866 2.85256
622.272 2.75304
626.974 2.68808
631.677 2.60431
634.028 2.55126
636.380 2.48694
638.731 2.40659
641.083 2.30301
642.258 2.23966
643.434 2.16754
644.610 2.08858
645.785 2.01512
646.373 1.99402
646.961 2.00484
647.549 2.09196
648.137 2.37242
648.431 2.67743
648.725 3.21223
649.018 4.19233
649.312 6.12553
649.459 7.81457
649.606 10.4198
649.753 14.6657
649.900 22.0967
649.974 28.0258
650.047 36.5308
650.121 49.2377
650.194 69.1831
650.268 102.685
650.341 163.760
650.378 214.000
650.415 286.822
650.451 394.739
650.488 554.444
650.544 911.157
650.600 1169.52
650.656 961.236
650.712 617.903
650.776 368.578
650.840 236.717
650.903 163.607
650.967 120.074
651.031 92.2531
651.095 73.5172
651.222 50.6112
651.350 37.6403
651.477 29.5635
651.732 20.3796
651.987 15.4895
652.242 12.5449
652.497 10.6145
652.752 9.26899
653.262 7.54267
653.771 6.50007
654.281 5.81048
654.791 5.32427
655.811 4.68800
656.830 4.29157
657.850 4.02027
658.870 3.82138
660.909 3.54239
661.929 3.43668
662.949 3.34446
663.968 3.26570
664.478 3.23662
664.988 3.22737
665.243 3.24006
665.498 3.27774
665.753 3.36548
666.008 3.56446
666.135 3.75103
666.263 4.05169
666.390 4.56218
666.518 5.49588
666.645 7.40977
666.709 9.17746
666.773 12.0896
666.836 17.3095
666.900 27.7565
666.932 37.2086
666.964 52.2198
666.996 77.3053
667.028 119.675
667.064 194.698
667.100 248.755
667.136 204.632
667.173 132.363
667.199 95.5951
667.224 71.0367
667.250 54.5274
667.276 43.2484
667.328 29.4426
667.380 21.7646
667.432 17.0891
667.484 14.0363
667.588 10.4181
667.692 8.42686
667.795 7.20665
667.899 6.39978
668.003 5.83558
668.210 5.11002
668.418 4.67262
668.626 4.38411
668.833 4.18133
669.248 3.91669
669.663 3.75203
670.493 3.55666
671.324 3.44186
672.154 3.36381
673.814 3.25943
675.475 3.18833
677.135 3.13380
680.456 3.05034
687.097 2.92821
693.739 2.82606
700.381 2.72042
703.702 2.65854
707.022 2.58329
708.683 2.53743
710.343 2.48324
712.004 2.41742
713.664 2.33570
714.494 2.28781
715.324 2.23607
716.155 2.18511
716.985 2.15251
717.400 2.15974
717.815 2.20718
718.230 2.34308
718.645 2.69060
718.853 3.03835
719.060 3.62237
719.268 4.65540
719.475 6.62611
719.579 8.30844
719.683 10.8596
719.787 14.9317
719.890 21.8821
719.942 27.3086
719.994 34.9442
720.046 46.0826
720.098 63.0640
720.150 90.3964
720.202 137.373
720.254 224.168
720.280 294.268
720.306 391.430
720.353 643.365
720.400 826.202
720.447 679.692
720.495 437.547
720.548 263.120
720.601 169.980
720.654 118.118
720.707 87.0596
720.760 67.1846
720.813 53.7493
720.919 37.3039
721.025 27.9682
721.132 22.1455
721.344 15.5142
721.556 11.9769
721.769 9.84438
721.981 8.44447
722.193 7.46851
722.618 6.21516
723.043 5.45746
723.467 4.95624
723.892 4.60280
724.742 4.14082
725.591 3.85404
726.440 3.65920
727.290 3.51817
728.988 3.32687
730.687 3.20190
732.386 3.11258
734.085 3.04455
737.482 2.94511
740.880 2.87294
747.675 2.76713
761.265 2.61284
774.855 2.47672
788.445 2.33254
802.036 2.16017
808.831 2.05306
815.626 1.91833
819.023 1.83201
820.722 1.78098
822.421 1.72310
824.120 1.65971
824.969 1.63064
825.818 1.61565
826.243 1.62338
826.668 1.65542
827.093 1.73906
827.517 1.94316
827.730 2.14293
827.942 2.47451
828.154 3.05592
828.367 4.15951
828.579 6.53122
828.685 8.82480
828.791 12.7747
828.844 15.8901
828.898 20.3197
828.951 26.8741
829.004 37.0426
829.057 53.9038
829.110 84.1205
829.136 108.608
829.163 143.584
829.189 194.574
829.216 268.685
829.258 438.679
829.300 559.676
829.342 457.539
829.384 292.795
829.431 175.046
829.478 112.537
829.526 77.8161
829.573 57.0757
829.620 43.8378
829.667 34.9127
829.761 24.0212
829.855 17.8725
829.950 14.0613
830.138 9.74734
830.326 7.46608
830.515 6.10140
830.703 5.21140
830.892 4.59448
831.269 3.80726
831.646 3.33427
832.022 3.02224
832.399 2.80211
833.153 2.51255
833.907 2.32947
835.415 2.10515
836.922 1.96503
838.430 1.86213
841.445 1.70494
847.475 1.45263
853.506 1.21925
856.521 1.11459
859.536 1.04060
862.551 1.05072
865.566 1.29415
867.074 1.62444
868.582 2.25473
870.089 3.47792
870.843 4.49947
871.597 5.99214
872.351 8.23838
873.104 11.7529
873.858 17.5461
874.612 27.8028
874.989 36.0395
875.366 47.9094
875.743 65.7232
876.120 93.8561
876.496 141.273
876.873 228.124
877.062 299.728
877.250 404.038
877.439 559.157
877.627 789.590
877.914 1303.73
878.200 1681.19
878.487 1387.68
878.773 894.841
879.112 525.229
879.451 333.555
879.791 229.055
880.130 167.320
880.469 128.157
880.808 101.833
881.487 69.7350
882.165 51.5760
882.843 40.2422
884.200 27.2539
885.557 20.1931
886.913 15.7146
887.592 13.9543
887.931 13.1361
888.270 12.3487
888.609 11.6251
888.779 11.3450
888.948 11.2403
889.118 11.6490
889.203 12.3579
889.288 13.8849
889.372 17.2779
889.415 20.4666
889.457 25.6426
889.500 34.4976
889.521 41.3153
889.542 50.7002
889.563 63.8846
889.584 82.7690
889.606 110.189
889.627 149.649
889.645 196.355
889.663 252.296
889.700 337.130
889.718 329.655
889.737 291.961
889.773 199.522
889.797 153.838
889.821 121.350
889.869 81.8221
889.916 60.5243
889.964 47.9466
890.011 39.9128
890.059 34.4513
890.154 27.6518
890.250 23.6699
890.345 21.0944
890.535 17.9805
890.726 16.1618
890.916 14.9562
891.297 13.4137
891.678 12.4241
892.059 11.7030
892.820 10.6660
894.344 9.31667
895.867 8.40167
898.914 7.16654
901.961 6.34452
908.055 5.28790
914.149 4.60762
920.243 4.09546
923.290 3.87079
926.337 3.66194
929.384 3.49220
930.908 3.45795
932.431 3.53257
933.193 3.66510
933.954 3.93340
934.716 4.46935
935.478 5.58764
936.240 8.17437
936.621 10.7906
937.001 15.4439
937.382 24.6320
937.573 32.8284
937.763 45.8672
937.954 68.0874
938.144 109.410
938.239 144.005
938.334 195.179
938.430 272.690
938.525 390.223
938.662 641.610
938.800 825.472
938.938 680.646
939.075 439.066
939.194 296.013
939.313 207.722
939.432 152.655
939.551 116.896
939.789 75.5356
940.027 53.6650
940.265 40.7505
940.503 32.4818
940.979 22.8436
941.455 17.6026
941.931 14.4068
942.407 12.2957
942.883 10.8170
943.835 8.90958
944.787 7.75089
945.739 6.98055
946.691 6.43432
948.595 5.71305
950.499 5.25728
952.403 4.94087
954.306 4.70610
958.114 4.37491
961.922 4.14554
969.538 3.83089
977.153 3.60686
984.769 3.42274
992.384 3.25317
1000.00 3.07766
1006.96 2.88758
1010.44 2.76846
1013.92 2.61896
1015.67 2.52658
1017.41 2.41736
1019.15 2.28596
1020.89 2.12826
1021.76 2.04099
1022.63 1.95503
1023.50 1.88924
