Nd-146(n,g) ENDF/B-VII.1
Energy(eV) XS(b)
1.00000E-05 74.9188
1.25000E-05 67.0094
1.50000E-05 61.1709
2.00000E-05 52.9756
2.75000E-05 45.1777
3.50000E-05 40.0458
4.25000E-05 36.3409
5.00000E-05 33.5047
6.25000E-05 29.9675
7.50000E-05 27.3565
0.000100000 23.6914
0.000125000 21.1902
0.000150000 19.3439
0.000200000 16.7523
0.000275000 14.2864
0.000350000 12.6636
0.000425000 11.4920
0.000500000 10.5951
0.000625000 9.47652
0.000750000 8.65084
0.00100000 7.49184
0.00125000 6.70089
0.00150000 6.11704
0.00200000 5.29750
0.00275000 4.51770
0.00350000 4.00450
0.00425000 3.63401
0.00500000 3.35038
0.00625000 2.99665
0.00750000 2.73553
0.0100000 2.36901
0.0125000 2.11888
0.0150000 1.93424
0.0200000 1.67505
0.0253000 1.48926
0.0314750 1.33516
0.0376500 1.22073
0.0500000 1.05922
0.0625000 0.947333
0.0750000 0.864734
0.100000 0.748780
0.125000 0.669638
0.150000 0.611210
0.200000 0.529179
0.275000 0.451101
0.350000 0.399696
0.500000 0.334137
0.750000 0.272451
1.00000 0.235630
1.50000 0.191871
2.00000 0.165716
2.75000 0.140753
3.50000 0.124262
5.00000 0.103134
7.50000 0.0830987
10.0000 0.0710268
15.0000 0.0565128
20.0000 0.0477175
27.5000 0.0392143
35.0000 0.0335341
50.0000 0.0261979
75.0000 0.0192565
100.000 0.0151748
150.000 0.0105743
200.000 0.00814075
279.726 0.00654647
299.657 0.00676701
319.588 0.00805437
329.554 0.0101067
334.537 0.0122248
339.520 0.0161567
344.503 0.0246715
346.994 0.0332231
349.485 0.0489214
350.731 0.0622295
351.977 0.0826722
353.223 0.116439
354.468 0.178249
355.091 0.230523
355.714 0.310620
356.337 0.442524
356.960 0.682799
357.271 0.885083
357.583 1.19351
357.894 1.69797
358.205 2.60799
358.361 3.36682
358.439 3.87713
358.517 4.51215
358.556 4.89091
358.595 5.31830
358.634 5.80429
358.673 6.36007
358.712 7.00145
358.750 7.74288
358.789 8.60858
358.828 9.62788
358.867 10.8427
358.906 12.2984
358.945 14.0676
358.984 16.2469
359.023 18.9809
359.062 22.4549
359.101 26.9727
359.140 32.9954
359.179 41.2925
359.218 53.0881
359.256 70.6797
359.295 98.4941
359.334 146.138
359.354 183.516
359.373 236.104
359.393 313.555
359.412 430.789
359.432 616.233
359.451 908.483
359.476 1453.51
359.500 1816.78
359.525 1453.34
359.549 908.303
359.566 642.975
359.583 466.976
359.601 348.879
359.618 268.709
359.652 171.198
359.686 117.639
359.721 85.4728
359.755 64.7734
359.823 40.7575
359.892 27.9397
359.961 20.3226
360.029 15.4368
360.098 12.1234
360.235 8.03748
360.372 5.71639
360.509 4.27155
360.646 3.31306
360.921 2.15905
361.195 1.51816
361.469 1.12572
361.744 0.868160
362.292 0.561819
362.841 0.393610
363.390 0.291429
363.938 0.224758
365.035 0.145935
366.133 0.102905
367.230 0.0768757
368.327 0.0599453
370.522 0.0399912
372.716 0.0291309
374.911 0.0225732
377.105 0.0183122
381.495 0.0132925
385.884 0.0105572
394.662 0.00781957
412.218 0.00582213
429.775 0.00509032
500.000 0.00438675
562.493 0.00455086
593.740 0.00490921
609.363 0.00547862
617.174 0.00708012
619.127 0.00864681
621.080 0.0130543
622.057 0.0191766
623.033 0.0365456
623.521 0.0606868
623.766 0.0848069
624.010 0.128889
624.254 0.223025
624.376 0.316548
624.498 0.486092
624.559 0.628419
624.620 0.844239
624.681 1.19505
624.742 1.82216
624.773 2.34190
624.803 3.11760
624.834 4.35367
624.864 6.50019
624.895 10.7243
624.910 14.5765
624.925 20.8625
624.940 32.2949
624.948 41.7221
624.956 55.7959
624.963 78.3262
624.971 115.792
624.978 183.267
624.986 309.770
624.993 495.661
625.000 619.600
625.007 495.662
625.014 309.773
625.020 202.378
625.026 138.425
625.032 99.0118
625.038 73.7013
625.050 44.8766
625.062 29.9684
625.074 21.3571
625.086 15.9629
625.110 9.86294
625.134 6.67512
625.158 4.81953
625.182 3.64178
625.206 2.84823
625.254 1.87748
625.302 1.33135
625.350 0.993409
625.398 0.769897
625.494 0.501785
625.591 0.353435
625.783 0.203567
625.975 0.133115
626.167 0.0945093
626.551 0.0558027
626.935 0.0377486
627.320 0.0279004
628.088 0.0180719
629.625 0.0110368
631.162 0.00858524
634.236 0.00687226
637.310 0.00631777
649.606 0.00603615
674.199 0.00681875
698.791 0.00854928
711.087 0.0107905
714.161 0.0122723
717.235 0.0158722
718.772 0.0205639
720.309 0.0335405
721.078 0.0514226
721.462 0.0692693
721.846 0.101890
722.231 0.171705
722.423 0.241199
722.615 0.367695
722.711 0.474120
722.807 0.636319
722.903 0.901330
722.999 1.37796
723.047 1.77517
723.095 2.37266
723.143 3.33367
723.191 5.02535
723.215 6.40726
723.239 8.43721
723.263 11.6058
723.287 16.9473
723.311 26.9827
723.323 35.6577
723.335 49.1799
723.347 71.7947
723.359 113.247
723.365 147.685
723.371 198.459
723.377 275.230
723.383 392.612
723.392 627.488
723.400 785.346
723.408 627.484
723.417 392.612
723.422 288.136
723.427 215.890
723.438 130.020
723.448 84.9224
723.459 59.4994
723.469 43.7027
723.479 33.4625
723.500 21.3131
723.521 14.7258
723.542 10.7707
723.584 6.47815
723.626 4.31572
723.667 3.08232
723.709 2.31017
723.751 1.79729
723.834 1.17747
723.918 0.832044
724.001 0.620086
724.085 0.480756
724.252 0.314717
724.419 0.223440
724.753 0.131673
725.087 0.0887739
725.421 0.0653539
726.089 0.0419888
727.425 0.0253502
728.762 0.0196663
731.434 0.0159591
734.106 0.0150728
744.796 0.0168348
755.485 0.0217946
766.175 0.0311539
771.520 0.0390588
776.865 0.0511276
782.209 0.0709044
784.882 0.0859239
786.218 0.0954347
787.554 0.106725
788.890 0.120273
789.558 0.128086
790.226 0.136721
790.895 0.146300
791.563 0.156964
792.899 0.182268
794.235 0.214473
795.571 0.256342
796.907 0.312170
798.244 0.388928
799.580 0.498571
800.916 0.662939
802.252 0.925525
802.920 1.12004
803.588 1.38332
804.256 1.75187
804.925 2.29003
805.593 3.11944
806.261 4.49261
806.929 7.00255
807.263 9.11117
807.597 12.3018
807.931 17.4228
808.265 26.2488
808.599 42.7545
808.766 56.3098
808.933 75.3119
809.217 120.403
809.500 150.383
809.784 120.212
810.068 75.0765
810.347 46.5427
810.626 30.4234
810.906 21.0617
811.185 15.3125
811.464 11.5792
811.743 9.03913
812.301 5.92331
812.859 4.16841
813.418 3.08803
814.534 1.88627
815.651 1.26972
816.767 0.912622
817.884 0.687620
819.000 0.536869
821.234 0.353795
823.467 0.251164
825.700 0.187956
827.933 0.146310
832.399 0.0966178
836.865 0.0692689
841.331 0.0526608
845.798 0.0418495
854.730 0.0291578
863.662 0.0223514
881.527 0.0158860
899.392 0.0133230
917.257 0.0124266
935.121 0.0125862
944.054 0.0135646
948.520 0.0167053
949.637 0.0198225
950.753 0.0286001
951.311 0.0407721
951.870 0.0751646
952.149 0.122721
952.288 0.170023
952.428 0.255935
952.567 0.437925
952.637 0.616945
952.707 0.937676
952.777 1.60359
952.812 2.24400
952.847 3.36458
952.881 5.59636
952.899 7.65715
952.916 11.0704
952.934 17.4060
952.943 22.7507
952.951 30.9095
952.960 44.1561
952.969 67.3887
952.977 111.974
952.982 150.021
952.986 203.174
952.993 325.082
953.000 406.358
953.007 325.082
953.014 203.175
953.020 135.443
953.026 94.1198
953.031 67.7499
953.037 50.8996
953.049 31.2649
953.060 21.0589
953.071 15.0562
953.083 11.2798
953.106 7.00525
953.129 4.75758
953.152 3.44447
953.175 2.60582
953.198 2.04252
953.244 1.35181
953.289 0.961735
953.381 0.560657
953.473 0.368852
953.565 0.262635
953.748 0.155256
954.115 0.0770621
954.482 0.0492972
955.217 0.0292994
955.951 0.0222744
957.419 0.0172857
958.887 0.0155911
964.761 0.0142584
976.507 0.0148107
1000.00 0.0176270
1010.10 0.0193790
1015.15 0.0204050
1017.68 0.0209606
1020.20 0.0215471
1022.73 0.0221664
1025.25 0.0228206
1027.78 0.0235123
1030.30 0.0242439
1032.83 0.0250184
1035.35 0.0258389
1037.88 0.0267089
1040.40 0.0276321
1045.45 0.0296559
1050.50 0.0319494
1055.55 0.0345611
1060.60 0.0375508
1070.70 0.0449843
1080.80 0.0551299
1090.90 0.0694718
1101.00 0.0906730
1111.10 0.123899
1116.15 0.148069
1121.20 0.180257
1126.25 0.224418
1131.30 0.287257
1136.35 0.380843
1141.40 0.528588
1146.45 0.780344
1148.98 0.977290
1151.50 1.25540
1154.03 1.66208
1156.55 2.27942
1159.08 3.24784
1161.60 4.77597
1164.80 7.62414
1168.00 9.49462
1171.20 7.57019
1174.40 4.72408
1176.97 3.18669
1179.53 2.22214
1182.10 1.61187
1184.67 1.21216
1189.80 0.748023
1194.93 0.503697
1200.06 0.360990
1205.20 0.270983
1215.46 0.168585
1225.72 0.114993
1235.99 0.0835952
1246.25 0.0636890
1256.52 0.0503170
1277.05 0.0341135
1297.58 0.0251707
1318.11 0.0198778
1338.64 0.0166897
1379.69 0.0142867
1400.22 0.0149386
1420.75 0.0175744
1441.28 0.0245563
1451.55 0.0318984
1461.81 0.0454349
1466.95 0.0568244
1472.08 0.0741008
1477.21 0.102077
1478.49 0.111785
1479.78 0.123045
1481.06 0.136203
1481.70 0.143636
1482.34 0.151711
1482.98 0.160531
1483.63 0.170176
1484.27 0.180752
1484.91 0.192362
1486.19 0.219358
1487.47 0.252655
1488.76 0.294372
1490.04 0.347593
1491.32 0.416947
1492.61 0.509636
1493.89 0.637345
1495.17 0.820021
1496.46 1.09390
1497.74 1.53012
1499.02 2.28281
1499.66 2.87948
1500.30 3.73053
1500.95 4.99586
1501.59 6.95175
1502.23 10.1053
1502.87 15.2305
1503.64 24.3859
1504.40 30.4852
1505.17 24.3541
1505.93 15.1998
1506.54 10.2761
1507.15 7.17841
1507.76 5.21474
1508.37 3.92656
1509.59 2.42829
1510.81 1.63779
1512.03 1.17537
1513.25 0.883213
1515.69 0.550262
1518.13 0.375417
1520.57 0.272674
1523.01 0.207244
1525.45 0.163083
1530.33 0.109014
1535.21 0.0784511
1540.08 0.0595128
1544.96 0.0469730
1554.72 0.0319223
1564.48 0.0235782
1584.00 0.0151402
1603.51 0.0112047
1623.03 0.00911083
1662.06 0.00732518
1701.09 0.00731010
1720.61 0.00801754
1740.13 0.00963166
1759.64 0.0133504
1769.40 0.0171164
1779.16 0.0239939
1784.04 0.0297790
1788.92 0.0385919
1793.80 0.0529831
1798.67 0.0788929
1801.11 0.100450
1802.33 0.114929
1803.55 0.132940
1804.77 0.155772
1805.38 0.169543
1805.99 0.185285
1806.60 0.203393
1807.21 0.224364
1807.82 0.248835
1808.43 0.277578
1809.04 0.311765
1809.65 0.352790
1810.26 0.402602
1810.87 0.463893
1811.48 0.540467
1812.09 0.637834
1812.70 0.764222
1813.31 0.932009
1813.92 1.16213
1814.53 1.48876
1815.14 1.97350
1815.75 2.73476
1816.36 4.02171
1816.67 5.02036
1816.97 6.41972
1817.28 8.44569
1817.58 11.4814
1817.89 16.1661
1818.19 23.3948
1818.60 37.5065
1819.00 46.9385
1819.41 37.4853
1819.81 23.3744
1820.16 15.2682
1820.51 10.3829
1820.87 7.39497
1821.22 5.48747
1821.92 3.32798
1822.63 2.21745
1823.33 1.57837
1824.03 1.17908
1825.44 0.728910
1826.85 0.494748
1828.26 0.357984
1829.67 0.271322
1831.07 0.213042
1833.89 0.141908
1836.70 0.101877
1839.52 0.0771469
1842.33 0.0608323
1847.97 0.0413456
1853.60 0.0306356
1864.86 0.0199933
1876.12 0.0152315
1887.38 0.0128865
1909.91 0.0114295
1932.43 0.0124935
1954.95 0.0164904
1966.22 0.0205830
1977.48 0.0276430
1988.74 0.0410468
1991.56 0.0462708
1994.37 0.0527085
1995.78 0.0565050
1997.19 0.0607671
1998.59 0.0655807
2000.00 0.0710368
2000.94 0.0750957
2001.88 0.0795332
2002.82 0.0844083
2003.75 0.0897684
2005.63 0.102250
2007.51 0.117684
2009.39 0.137077
2011.26 0.161906
2013.14 0.194399
2015.02 0.238026
2016.89 0.298558
2018.77 0.385878
2020.65 0.518278
2022.52 0.732501
2024.40 1.11080
2025.34 1.41770
2026.28 1.86568
2027.22 2.55159
2028.15 3.65596
2029.09 5.53195
2030.03 8.79376
2031.02 14.0756
2032.00 17.5932
2032.99 14.0580
2033.97 8.77686
2035.02 5.24935
2036.06 3.34469
2037.10 2.27518
2038.15 1.63460
2039.19 1.22559
2040.24 0.951041
2042.33 0.618483
2044.42 0.433603
2046.50 0.320758
2050.68 0.196251
2054.86 0.132846
2059.04 0.0963116
2063.21 0.0733733
2067.39 0.0580533
2075.75 0.0395152
2084.10 0.0291799
2100.81 0.0187227
2117.52 0.0138791
2134.23 0.0113240
2167.65 0.00907206
2234.49 0.00871506
2301.34 0.0110584
2334.76 0.0134015
2351.47 0.0150208
2368.18 0.0170542
2376.53 0.0182665
2380.71 0.0189307
2384.89 0.0196374
2389.07 0.0203908
2393.24 0.0211943
2397.42 0.0220527
2401.60 0.0229706
2405.78 0.0239538
2409.95 0.0250080
2418.31 0.0273587
2426.66 0.0300887
2435.02 0.0332824
2443.37 0.0370500
2451.73 0.0415345
2460.08 0.0469284
2468.44 0.0534924
2476.79 0.0615874
2485.15 0.0717237
2493.50 0.0846412
2501.86 0.101444
2510.22 0.123834
2518.57 0.154526
2526.93 0.198069
2535.28 0.262443
2543.64 0.362475
2551.99 0.527293
2560.35 0.816010
2568.70 1.33753
2576.85 2.13129
2585.00 2.65018
2593.15 2.11393
2601.30 1.32080
2607.13 0.929020
2612.97 0.669992
2618.80 0.498607
2624.64 0.382344
2636.30 0.242426
2647.97 0.166145
2659.64 0.120581
2671.31 0.0913890
2694.64 0.0577068
2717.98 0.0398754
2741.32 0.0294003
2764.65 0.0228584
2776.32 0.0207582
2782.15 0.0209214
2785.07 0.0251918
2786.53 0.0437423
2787.26 0.117089
2787.44 0.191975
2787.62 0.398963
2787.71 0.677848
2787.80 1.42848
2787.85 2.41732
2787.87 3.35352
2787.90 4.87055
2787.92 7.88633
2787.93 10.7025
2787.94 14.8257
2787.95 22.6573
2787.96 36.5108
2787.97 49.6961
2787.98 66.3361
2787.98 97.7689
2787.99 138.915
2787.99 222.254
2788.00 277.814
2788.01 222.254
2788.01 138.915
2788.02 97.7693
2788.02 75.1180
2788.03 44.6472
2788.04 29.0260
2788.05 20.2140
2788.06 14.8259
2788.07 11.3145
2788.09 7.19009
2788.10 4.96278
2788.12 3.62898
2788.16 2.20989
2788.23 1.05279
2788.30 0.622033
2788.44 0.295512
2788.59 0.177330
2788.87 0.0901920
2789.16 0.0590394
2790.30 0.0283962
2792.58 0.0203308
2797.14 0.0177656
2806.26 0.0161818
2824.51 0.0143510
2861.00 0.0125855
2897.49 0.0138240
2915.74 0.0173212
2924.86 0.0214478
2929.42 0.0265199
2931.71 0.0377459
2932.85 0.0763221
2933.13 0.114992
2933.42 0.222811
2933.56 0.370415
2933.70 0.772156
2933.77 1.31513
2933.84 2.73151
2933.88 4.55333
2933.90 6.23911
2933.91 8.86078
2933.93 13.9186
2933.94 18.2118
2933.95 24.7763
2933.96 35.4528
2933.97 54.1993
2933.98 90.1181
2933.99 155.126
2933.99 252.350
2934.00 309.180
2934.01 252.350
2934.01 154.078
2934.02 116.279
2934.02 84.7827
2934.03 63.5650
2934.03 48.9938
2934.04 31.2585
2934.05 21.4911
2934.06 15.6195
2934.07 11.8402
2934.09 7.61278
2934.11 5.20623
2934.13 3.83966
2934.17 2.31034
2934.25 1.09964
2934.33 0.651211
2934.49 0.313110
2934.64 0.190687
2934.96 0.101470
2935.27 0.0699063
2936.53 0.0401101
2939.04 0.0353562
2944.06 0.0420753
2949.08 0.0557843
2954.10 0.0805042
2956.61 0.100679
2957.87 0.114033
2959.12 0.130429
2959.75 0.140075
2960.38 0.150891
2961.01 0.163069
2961.64 0.176825
2962.26 0.192493
2962.89 0.210412
2963.52 0.231031
2964.15 0.254874
2964.77 0.282737
2965.40 0.315512
2966.66 0.400954
2967.91 0.526757
2969.17 0.721819
2969.80 0.862047
2970.42 1.04621
2971.05 1.29372
2971.68 1.63449
2972.31 2.11868
2972.94 2.82569
2973.56 3.88170
2974.19 5.45426
2975.10 8.71433
2976.00 10.8812
2976.91 8.70746
2977.81 5.44760
2978.50 3.75974
2979.18 2.67147
2979.86 1.96521
2980.55 1.49465
2981.92 0.937366
2983.29 0.638582
2984.65 0.461752
2986.02 0.349262
2988.76 0.220032
2991.50 0.151705
2994.23 0.111366
2999.71 0.0681459
3005.18 0.0467090
3010.66 0.0345422
3021.61 0.0219393
3032.55 0.0158627
3043.50 0.0124669
3065.40 0.00900875
3087.30 0.00742340
3109.19 0.00668372
3131.09 0.00651906
3142.04 0.00676821
3147.51 0.00747723
3150.25 0.00993296
3151.62 0.0194109
3152.30 0.0563435
3152.65 0.197581
3152.73 0.338738
3152.82 0.714432
3152.86 1.20780
3152.90 2.47156
3152.92 4.06033
3152.95 7.55870
3152.96 11.4776
3152.97 18.2632
3152.97 25.4380
3152.98 34.8153
3152.98 49.4809
3152.99 74.3379
3152.99 121.240
3153.00 148.088
3153.01 121.240
3153.01 73.7574
3153.02 49.4812
3153.02 34.8155
3153.03 23.9937
3153.03 18.2634
3153.05 11.0111
3153.06 7.55883
3153.08 3.95862
3153.10 2.47164
3153.14 1.20786
3153.18 0.714485
3153.27 0.336335
3153.36 0.196557
3153.70 0.0561190
3154.39 0.0194200
3155.76 0.0101035
3158.51 0.00785255
3164.00 0.00754928
3174.98 0.00829275
3185.97 0.00983698
3196.95 0.0127856
3207.94 0.0191453
3213.43 0.0254346
3218.92 0.0367363
3221.67 0.0461101
3224.41 0.0601852
3227.16 0.0827210
3228.53 0.0994472
3229.22 0.109890
3229.91 0.122123
3230.59 0.136623
3231.28 0.153932
3231.97 0.174885
3232.65 0.200497
3233.34 0.232351
3234.03 0.272510
3234.71 0.324270
3235.40 0.392301
3236.09 0.484414
3236.77 0.612834
3237.46 0.799610
3238.14 1.08400
3238.83 1.54575
3239.52 2.35255
3239.86 2.99430
3240.20 3.89752
3240.55 5.19123
3240.89 7.03397
3241.45 11.2234
3242.00 14.0025
3242.56 11.2184
3243.11 7.02919
3243.62 4.50672
3244.13 3.02026
3244.63 2.12850
3245.14 1.56842
3246.16 0.942469
3247.17 0.624872
3248.19 0.443661
3249.20 0.331102
3251.23 0.204838
3253.26 0.139534
3255.29 0.101540
3257.32 0.0775165
3259.35 0.0613772
3263.41 0.0417227
3267.47 0.0306795
3275.59 0.0193764
3283.72 0.0140221
3291.84 0.0110889
3308.08 0.00820104
3340.56 0.00637925
3373.05 0.00618197
3405.53 0.00671811
3438.01 0.00794200
3470.50 0.0102344
3486.74 0.0123297
3494.86 0.0149764
3498.92 0.0218229
3500.95 0.0468074
3501.46 0.0722032
3501.97 0.143372
3502.22 0.241202
3502.47 0.512637
3502.60 0.878646
3502.73 1.86514
3502.79 3.16111
3502.82 4.38701
3502.85 6.40516
3502.89 10.3804
3502.90 13.9023
3502.92 19.0894
3502.93 28.4915
3502.95 46.5262
3502.96 62.2164
3502.97 86.3964
3502.97 125.023
3502.98 182.351
3502.99 288.758
3503.00 364.696
3503.01 288.757
3503.02 182.351
3503.03 113.558
3503.04 72.9480
3503.05 49.8714
3503.06 35.9262
3503.07 26.9853
3503.08 20.9567
3503.10 13.9026
3503.12 9.70824
3503.14 7.25554
3503.18 4.43651
3503.22 2.98958
3503.25 2.15099
3503.33 1.26798
3503.49 0.595633
3503.64 0.348346
3503.96 0.166014
3504.27 0.100628
3504.89 0.0532030
3505.52 0.0365078
3508.02 0.0205983
3513.01 0.0174862
3518.01 0.0178680
3520.51 0.0183371
3523.00 0.0189077
3525.50 0.0195623
3528.00 0.0202978
3530.50 0.0211234
3533.00 0.0220691
3535.49 0.0232235
3537.99 0.0249399
3540.49 0.0300427
3541.74 0.0466707
3542.36 0.109598
3542.67 0.347530
3542.75 0.581244
3542.83 1.20421
3542.87 2.00195
3542.91 3.98988
3542.93 6.41293
3542.95 11.4843
3542.96 16.8999
3542.97 26.9879
3542.97 35.4987
3542.98 48.2167
3542.98 67.7312
3542.99 94.0613
3542.99 148.247
3543.00 188.098
3543.01 148.247
3543.01 94.0615
3543.02 58.8939
3543.03 37.6400
3543.03 25.6383
3543.04 19.2576
3543.05 11.0888
3543.07 7.36344
3543.09 3.82654
3543.12 2.33813
3543.18 1.13843
3543.23 0.682906
3543.34 0.329016
3543.44 0.200440
3543.87 0.0712114
3544.73 0.0379957
3546.45 0.0303005
3549.89 0.0300147
3556.76 0.0339100
3563.63 0.0394322
3570.50 0.0466543
3577.37 0.0562222
3584.24 0.0692302
3591.12 0.0876781
3594.55 0.100880
3596.27 0.113019
3597.13 0.137472
3597.56 0.219478
3597.77 0.520659
3597.83 0.813837
3597.88 1.56163
3597.91 2.50718
3597.93 4.78180
3597.95 7.47233
3597.96 12.6434
3597.97 17.8917
3597.97 25.2696
3597.98 40.4048
3597.99 65.2514
3597.99 106.353
3598.00 129.880
3598.01 106.353
3598.01 64.7428
3598.02 37.6120
3598.03 22.3998
3598.04 14.5768
3598.04 10.6008
3598.06 6.09570
3598.07 3.95536
3598.10 2.03562
3598.13 1.27855
3598.20 0.666963
3598.26 0.438442
3598.50 0.200994
3598.98 0.140141
3599.96 0.128832
3601.90 0.135585
3605.78 0.161008
3609.67 0.195625
3613.56 0.242318
3617.44 0.306504
3621.33 0.396533
3625.21 0.524592
3629.10 0.705699
3635.55 1.12775
3642.00 1.40703
3648.45 1.12265
3654.90 0.700865
3660.47 0.459940
3666.03 0.314194
3671.60 0.224773
3677.16 0.167565
3688.29 0.102702
3699.42 0.0693464
3710.55 0.0501973
3721.68 0.0382987
3743.94 0.0250822
3766.20 0.0185296
3788.46 0.0151157
3810.72 0.0135723
3821.85 0.0136172
3827.42 0.0150042
3830.20 0.0206916
3831.59 0.0431166
