Pb-206(n,tot) ENDF/B-VII.1
Energy(eV) XS(b)
1.00000E-05 12.7347
1.25000E-05 12.5766
1.50000E-05 12.4598
2.00000E-05 12.2959
2.75000E-05 12.1400
3.50000E-05 12.0374
4.25000E-05 11.9633
5.00000E-05 11.9066
6.25000E-05 11.8358
7.50000E-05 11.7836
0.000100000 11.7103
0.000125000 11.6603
0.000150000 11.6234
0.000200000 11.5716
0.000275000 11.5223
0.000350000 11.4898
0.000425000 11.4664
0.000500000 11.4485
0.000625000 11.4261
0.000750000 11.4096
0.00100000 11.3864
0.00125000 11.3706
0.00150000 11.3589
0.00200000 11.3425
0.00275000 11.3269
0.00350000 11.3167
0.00425000 11.3093
0.00500000 11.3036
0.00625000 11.2965
0.00750000 11.2913
0.0100000 11.2839
0.0125000 11.2789
0.0150000 11.2752
0.0200000 11.2701
0.0253000 11.2663
0.0314750 11.2632
0.0376500 11.2609
0.0500000 11.2577
0.0625000 11.2554
0.0750000 11.2538
0.100000 11.2514
0.125000 11.2498
0.150000 11.2486
0.200000 11.2468
0.275000 11.2451
0.350000 11.2440
0.500000 11.2424
0.750000 11.2408
1.00000 11.2396
1.50000 11.2378
2.00000 11.2365
2.75000 11.2347
3.50000 11.2330
5.00000 11.2300
7.50000 11.2254
10.0000 11.2209
15.0000 11.2121
20.0000 11.2035
27.5000 11.1909
35.0000 11.1786
50.0000 11.1545
75.0000 11.1160
100.000 11.0793
150.000 11.0108
200.000 10.9482
237.500 10.9047
275.000 10.8637
312.500 10.8251
350.000 10.7888
425.000 10.7218
500.000 10.6615
625.000 10.5736
750.000 10.4981
875.000 10.4327
1000.00 10.3754
1500.00 10.2023
2000.00 10.0850
2339.21 10.0243
2678.42 9.97388
2848.03 9.95175
2932.83 9.94135
3017.63 9.93139
3102.43 9.92192
3187.24 9.91320
3229.64 9.90953
3272.04 9.90750
3293.24 9.90864
3303.84 9.91088
3314.44 9.91587
3325.04 9.92779
3330.34 9.94020
3335.64 9.96334
3338.29 9.98307
3340.94 10.0134
3343.59 10.0636
3346.24 10.1553
3347.56 10.2326
3348.89 10.3508
3350.21 10.5447
3351.54 10.8958
3352.20 11.1899
3352.86 11.6352
3353.53 12.3591
3354.19 13.6485
3354.52 14.7144
3354.85 16.3021
3355.18 18.8248
3355.51 23.1881
3355.85 31.7586
3356.01 39.5088
3356.18 52.0804
3356.34 74.7119
3356.43 93.3334
3356.51 120.532
3356.59 163.331
3356.67 234.096
3356.76 358.643
3356.84 581.407
3356.92 926.562
3357.00 1153.19
3357.08 922.502
3357.16 581.680
3357.21 428.150
3357.26 323.291
3357.36 198.660
3357.46 133.176
3357.56 96.2700
3357.66 73.3275
3357.76 58.4598
3357.96 40.8778
3358.17 31.2846
3358.37 25.5501
3358.77 19.2932
3359.17 16.1497
3359.57 14.3528
3359.97 13.2308
3360.37 12.4839
3361.17 11.5821
3361.98 11.0806
3362.78 10.7730
3363.58 10.5708
3365.18 10.3300
3366.79 10.1977
3368.39 10.1173
3370.00 10.0647
3373.21 10.0025
3376.41 9.96841
3382.83 9.93413
3389.25 9.91792
3395.67 9.90884
3408.50 9.89921
3434.17 9.89076
3459.84 9.88622
3511.18 9.87985
3562.52 9.87451
3665.19 9.86473
3767.87 9.85551
3870.55 9.84667
3973.23 9.83814
4178.58 9.82193
4589.29 9.79239
5000.00 9.76602
6250.00 9.69959
7500.00 9.64677
10000.0 9.56303
10430.0 9.55044
10645.0 9.54433
10752.5 9.54139
10806.2 9.54018
10833.1 9.54032
10846.5 9.54288
10853.2 9.55305
10856.6 9.59115
10858.3 9.73379
10858.7 9.87479
10859.1 10.2569
10859.3 10.7584
10859.5 12.0602
10859.6 13.7869
10859.7 17.5129
10859.8 21.5054
10859.8 29.3206
10859.9 38.1141
10859.9 47.4149
10859.9 71.3266
10859.9 116.335
10860.0 223.175
10860.0 168.356
10860.1 116.377
10860.1 71.2171
10860.1 47.2568
10860.2 29.1630
10860.2 20.3664
10860.3 16.8400
10860.4 13.2746
10860.5 11.8878
10860.7 10.6740
10860.9 10.2027
10861.7 9.71143
10863.4 9.58017
10866.8 9.54740
10873.6 9.53950
10887.0 9.53750
10914.0 9.53650
10968.0 9.53500
11075.9 9.53204
11183.9 9.52909
11237.8 9.52771
11264.8 9.52752
11278.3 9.52951
11285.1 9.53888
11288.4 9.57534
11290.1 9.70581
11290.6 9.82420
11291.0 10.1099
11291.2 10.4327
11291.4 11.1058
11291.6 12.8379
11291.7 14.9690
11291.8 18.9483
11291.9 24.7891
11292.0 28.4286
11292.1 24.8195
11292.2 18.9844
11292.3 15.5718
11292.4 13.4815
11292.5 11.5176
11292.7 10.7021
11292.9 10.2971
11293.3 9.92870
11293.6 9.77549
11295.0 9.59756
11297.9 9.54555
11303.6 9.53112
11315.0 9.52697
11337.8 9.52530
11383.5 9.52376
11474.7 9.52118
11657.2 9.51621
12022.3 9.50641
12752.4 9.48711
13482.5 9.46790
13847.5 9.45815
14030.0 9.45349
14121.3 9.45295
14144.1 9.45465
14166.9 9.46110
14178.3 9.47105
14189.7 9.50056
14195.5 9.54226
14198.3 9.58392
14201.2 9.65971
14204.0 9.81950
14205.4 9.97613
14206.9 10.2522
14208.3 10.8175
14209.0 11.3453
14209.7 12.2425
14210.4 13.9827
14210.8 15.5201
14211.1 17.8834
14211.5 22.0387
14211.8 29.6725
14212.0 36.3962
14212.2 46.6827
14212.4 62.9674
14212.6 87.4861
14212.8 135.339
14213.0 166.194
14213.2 136.249
14213.4 88.1573
14213.7 54.4410
14214.0 36.7898
14214.3 27.4725
14214.5 22.1182
14214.8 18.8033
14215.1 16.6236
14215.6 14.0407
14216.1 12.6336
14216.7 11.7859
14217.8 10.8667
14218.8 10.3974
14219.9 10.1285
14222.1 9.84856
14224.2 9.71203
14226.4 9.63585
14230.7 9.55749
14239.3 9.49912
14247.9 9.47772
14265.2 9.46148
14282.4 9.45521
14316.9 9.44987
14351.3 9.44724
14489.2 9.44148
14764.9 9.43260
15040.6 9.42339
15316.4 9.41287
15592.1 9.39954
15729.9 9.39073
15867.8 9.37905
15936.7 9.37137
16005.7 9.36164
16074.6 9.34863
16143.5 9.32992
16178.0 9.31690
16212.5 9.29984
16246.9 9.27633
16281.4 9.24162
16298.6 9.21711
16315.9 9.18473
16333.1 9.13988
16350.3 9.07349
16358.9 9.02663
16367.6 8.96488
16376.2 8.87974
16384.8 8.75499
16389.1 8.66779
16393.4 8.55406
16397.7 8.39959
16402.0 8.17861
16404.2 8.02728
16406.3 7.83547
16408.5 7.58242
16410.6 7.23917
16411.7 7.01689
16412.8 6.74944
16413.9 6.42640
16415.0 6.04620
16416.0 5.63049
16416.6 5.45878
16417.1 5.40120
16417.6 5.65930
16418.2 6.81684
16418.5 8.20162
16418.7 10.7156
16419.0 15.2991
16419.3 23.2099
16419.4 32.3182
16419.6 44.6492
16420.0 69.3947
16420.2 73.7026
16420.4 70.5391
16420.8 55.8826
16421.2 42.0065
16421.6 33.3836
16422.0 27.7942
16422.4 24.1864
16422.8 21.6128
16423.2 19.7892
16424.0 17.3149
16424.8 15.7566
16425.6 14.6950
16427.2 13.3529
16428.9 12.5456
16430.5 12.0092
16432.1 11.6278
16433.7 11.3447
16436.9 10.9482
16440.2 10.6867
16443.4 10.5003
16446.6 10.3617
16453.1 10.1683
16459.6 10.0400
16466.1 9.94877
16472.5 9.88052
16485.5 9.78522
16498.4 9.72181
16511.3 9.67656
16524.3 9.64261
16550.2 9.59499
16576.1 9.56314
16601.9 9.54026
16627.8 9.52298
16679.6 9.49848
16731.3 9.48180
16783.1 9.46959
16834.9 9.46016
16938.4 9.44631
17041.9 9.43636
17249.0 9.42232
17456.0 9.41219
17663.1 9.40403
18077.2 9.39070
18491.3 9.37942
18905.4 9.36930
19319.5 9.36030
19526.5 9.35738
19630.1 9.36006
19655.9 9.36386
19681.8 9.37449
19694.8 9.38859
19707.7 9.42642
19714.2 9.47645
19717.4 9.52500
19720.6 9.61111
19723.9 9.78956
19725.5 9.96176
19727.1 10.2632
19728.7 10.8775
19729.5 11.4561
19730.3 12.4481
19731.2 14.3659
19731.6 16.1042
19732.0 18.8414
19732.4 23.7913
19732.8 33.3970
19733.0 42.0380
19733.2 55.8430
19733.4 79.0471
19733.6 119.726
19733.8 186.971
19734.0 230.893
19734.2 188.522
19734.4 120.512
19734.7 76.1411
19734.9 51.4076
19735.1 37.6898
19735.3 29.5428
19735.6 24.3855
19735.8 20.9415
19736.3 16.8662
19736.7 14.5550
19737.2 13.1796
19738.1 11.6472
19739.0 10.8651
19739.9 10.4229
19741.7 9.96257
19743.6 9.74051
19745.4 9.61843
19749.0 9.49547
19756.3 9.40802
19763.6 9.37848
19778.2 9.36212
19785.5 9.37826
19789.2 9.46165
19790.1 9.54649
19791.0 9.77314
19791.4 10.0647
19791.9 10.7558
19792.1 11.5544
19792.3 13.2343
19792.5 14.9372
19792.6 17.6002
19792.7 22.3709
19792.8 31.8342
19792.9 45.8543
19793.0 54.7615
19793.1 46.1824
19793.2 32.2318
19793.3 23.3253
19793.4 18.5703
19793.6 14.0640
19793.8 12.1681
19794.0 11.2168
19794.4 10.3288
19794.8 9.96007
19795.6 9.65335
19796.4 9.53319
19799.7 9.40437
19806.1 9.36601
19819.1 9.35349
19844.9 9.34841
19896.6 9.34567
20000.0 9.34313
20935.9 9.32414
21403.8 9.31502
21637.8 9.31097
21754.8 9.31004
21813.2 9.31278
21842.5 9.32467
21857.1 9.36753
21860.8 9.40930
21864.4 9.52203
21866.3 9.67187
21868.1 10.0714
21869.0 10.5913
21869.9 11.8969
21870.4 13.4922
21870.6 14.9080
21870.8 17.0529
21871.1 20.9061
21871.3 28.3886
21871.4 35.3461
21871.5 45.3138
21871.6 61.2259
21871.7 88.4237
21871.9 136.641
21872.0 167.777
21872.1 137.622
21872.3 88.6524
21872.4 65.2181
21872.5 48.8780
21872.6 38.3049
21872.7 31.2672
21872.9 22.9707
21873.1 18.7093
21873.3 16.0361
21873.5 14.3460
21873.8 12.4539
21874.6 10.8426
21875.4 10.2066
21877.0 9.71757
21878.6 9.53821
21881.7 9.40593
21884.9 9.35950
21897.5 9.31561
21922.7 9.30560
21973.2 9.30306
22074.2 9.30119
22276.1 9.29770
22679.9 9.29085
23083.7 9.28475
23487.5 9.28031
23891.3 9.27977
24093.3 9.28275
24295.2 9.29035
24497.1 9.30732
24699.0 9.34615
24799.9 9.38406
24900.9 9.44889
24951.4 9.49943
25001.8 9.57066
25027.1 9.61780
25052.3 9.67630
25077.6 9.75469
25090.2 9.82462
25096.5 9.94847
25098.1 10.0523
25099.6 10.3171
25100.4 10.6560
25101.2 11.5159
25101.6 12.5789
25102.0 14.9802
25102.2 17.6362
25102.4 22.5463
25102.5 27.1144
25102.6 34.3868
25102.7 46.5125
25102.8 64.4576
25102.9 97.1447
25103.0 119.326
25103.1 97.7075
25103.2 64.6927
25103.3 48.1191
25103.4 38.3670
25103.5 26.8981
25103.7 20.9675
25103.8 17.5998
25104.1 14.1012
25104.4 12.5472
25104.9 11.1827
25105.5 10.6346
25106.6 10.2106
25107.8 10.0567
25112.3 9.91649
25121.4 9.91832
25139.6 10.0039
25157.8 10.1173
25176.0 10.2583
25212.4 10.6607
25248.8 11.3438
25285.2 12.6356
25303.3 13.7562
25321.5 15.5065
25339.7 18.4394
25357.9 23.8140
25367.0 28.2781
25376.1 34.8434
25385.2 44.7633
25394.3 59.7394
25407.2 90.6112
25420.0 111.999
25432.9 92.2001
25445.7 61.3673
25458.9 41.0933
25472.0 29.8598
25485.2 23.4403
25498.3 19.5414
25511.5 17.0264
25524.7 15.3226
25551.0 13.2412
25577.3 12.0710
25603.6 11.3504
25656.2 10.5462
25708.8 10.1306
25761.5 9.88765
25814.1 9.73294
25866.7 9.62808
25972.0 9.49834
26077.2 9.42342
26182.5 9.37568
26287.7 9.34300
26498.2 9.30143
26708.7 9.27600
26919.2 9.25853
27129.7 9.24544
27550.7 9.22624
27971.8 9.21179
28813.8 9.18893
29655.8 9.16948
30497.8 9.15143
31339.8 9.13402
31760.8 9.12545
31971.3 9.12121
32076.6 9.11920
32129.2 9.11848
32155.5 9.11891
32168.7 9.12167
32175.2 9.13177
32178.5 9.16727
32180.2 9.28641
32181.0 9.64407
32181.4 10.5025
32181.6 12.0169
32181.8 16.8024
32182.0 24.3806
32182.2 16.7176
32182.3 13.1547
32182.4 11.5124
32182.7 10.1947
32183.2 9.48698
32184.1 9.22301
32186.1 9.14336
32190.0 9.12235
32197.8 9.11728
32213.5 9.11603
32244.8 9.11533
32307.4 9.11412
32432.7 9.11162
32683.2 9.10654
33184.3 9.09630
34186.3 9.07576
34687.4 9.06615
34937.9 9.06234
35188.4 9.06066
35313.7 9.06169
35438.9 9.06540
35564.2 9.07444
35689.5 9.09533
35752.1 9.11510
35814.7 9.14725
35877.4 9.20258
35940.0 9.30620
35971.3 9.39402
36002.6 9.52723
36033.9 9.74148
36065.2 10.1141
36096.6 10.8397
36112.2 11.4860
36127.9 12.5190
36143.5 14.3050
36159.2 17.7283
36167.0 20.6964
36174.9 25.2504
36182.7 32.4867
36190.5 44.0703
36200.3 65.7586
36210.0 81.1029
36219.8 67.7346
36229.5 46.2496
36238.9 32.5661
36248.3 24.6817
36257.8 20.0282
36267.2 17.1378
36276.6 15.2406
36286.0 13.9393
36304.8 12.3250
36323.6 11.4025
36342.5 10.8272
36380.1 10.1761
36417.8 9.83400
36455.4 9.63129
36493.1 9.50059
36530.7 9.41103
36606.1 9.29866
36681.4 9.23265
36756.7 9.19000
36832.0 9.16048
36982.6 9.12264
37133.2 9.09975
37283.8 9.08605
37359.2 9.08660
37396.8 9.10488
37406.2 9.12349
37415.6 9.17323
37420.4 9.23840
37425.1 9.41013
37427.4 9.63268
37429.8 10.2011
37430.9 10.9050
37432.1 12.5599
37432.7 14.4168
37433.3 18.2471
37433.6 21.9390
37433.9 27.9391
37434.2 38.6709
37434.5 59.1710
37434.7 88.8541
37435.0 110.128
37435.3 90.3775
37435.5 60.0139
37435.7 44.5201
37435.9 34.5836
37436.1 27.7306
37436.3 23.3600
37436.7 17.9964
37437.1 15.1095
37437.9 12.3151
37438.6 11.0821
37440.2 10.0402
37441.7 9.62993
37444.8 9.31672
37447.9 9.20284
37454.1 9.12110
37460.3 9.09310
37485.1 9.06756
37534.7 9.06072
37633.9 9.05529
37832.4 9.04627
38229.2 9.03151
38626.0 9.01945
38824.4 9.01413
38923.6 9.01191
38973.2 9.01168
38998.0 9.01404
39010.4 9.02308
39016.6 9.05422
39019.7 9.16082
39021.2 9.50763
39022.0 10.5037
39022.4 12.7104
39022.6 15.9313
39022.8 24.3649
39022.9 33.5107
39023.0 39.6509
39023.1 33.5123
39023.2 24.2599
39023.4 15.5093
39023.6 12.3517
39024.0 10.3127
39024.8 9.41573
39026.4 9.11712
39029.6 9.03300
39036.0 9.01222
39048.7 9.00770
39074.2 9.00658
39125.1 9.00546
39227.0 9.00309
39430.8 8.99820
39838.4 8.98851
40246.1 8.97874
40449.9 8.97313
40551.8 8.96889
40602.7 8.96457
40628.2 8.96068
40640.9 8.96552
40647.3 9.01860
40650.5 9.26614
40651.3 9.51411
40652.1 10.1339
40652.5 10.8687
40652.9 12.4604
40653.3 16.7778
40653.5 22.0198
40653.7 32.2368
40653.8 46.5805
40654.0 57.2075
40654.2 48.0841
40654.3 33.9495
40654.5 24.2528
40654.7 19.0113
40655.0 14.0297
40655.4 11.9967
40655.7 11.0114
40656.4 10.0856
40657.1 9.68417
40658.5 9.34774
40659.9 9.21114
40665.4 9.05523
40676.4 9.00294
40698.6 8.98364
40742.8 8.97517
40831.2 8.97000
41008.1 8.96469
41361.8 8.95650
41715.5 8.94942
41892.4 8.94761
41980.8 8.95142
42025.0 8.96802
42047.1 9.02536
42052.7 9.07935
42058.2 9.22040
42061.0 9.40109
42063.7 9.85524
42065.1 10.4023
42066.5 11.6596
42067.2 13.0060
42067.9 15.6384
42068.2 18.0240
42068.6 21.6876
42068.9 27.9481
42069.2 38.3451
42069.6 55.7855
42070.0 67.9048
42070.4 56.3082
42070.8 38.4844
42071.1 28.3316
42071.4 22.0316
42071.7 18.1966
42072.1 15.7612
42072.7 13.0231
42073.4 11.6429
42074.7 10.3476
42076.0 9.79107
42078.6 9.33886
42081.2 9.16546
42086.5 9.03587
42091.7 8.98980
42112.7 8.94674
42154.6 8.93736
42238.5 8.93472
42406.2 8.93150
42741.6 8.92454
43412.4 8.90984
44754.0 8.87932
45424.9 8.86472
45760.3 8.85902
46095.7 8.85709
46263.4 8.85949
46431.1 8.86676
46598.8 8.88375
46766.5 8.92220
46850.4 8.95816
46934.2 9.01604
47018.1 9.11425
47101.9 9.29432
47185.8 9.66506
47227.7 10.0104
47269.6 10.5850
47311.5 11.6296
47332.5 12.4949
47353.5 13.7802
47374.4 15.7834
47395.4 19.0793
47416.3 24.8229
47437.3 35.1288
47458.7 51.8462
47480.0 64.0004
47501.4 54.1258
47522.7 37.7683
47542.1 27.7631
47561.4 21.7661
47580.8 18.1147
47600.1 15.7900
47638.8 13.1541
47677.5 11.7891
47716.3 10.9952
47755.0 10.4928
47832.4 9.91469
47909.8 9.60481
47987.2 9.41791
48064.6 9.29546
48142.0 9.21021
48296.9 9.10089
48451.7 9.03463
48606.5 8.99042
48761.4 8.95877
49071.0 8.91596
49380.7 8.88755
50000.0 8.84976
50487.1 8.82828
50974.2 8.81027
51948.4 8.77956
52435.6 8.76590
52922.7 8.75368
53166.2 8.74886
53409.8 8.74692
53531.6 8.74935
53653.3 8.76018
53714.2 8.77598
53744.7 8.79141
53775.1 8.81863
53805.6 8.87398
53820.8 8.92657
53836.0 9.01833
53851.2 9.20278
53858.8 9.37595
53866.4 9.67328
53874.0 10.2530
53877.9 10.7782
53881.7 11.6387
53885.5 13.2039
53887.4 14.5090
53889.3 16.4778
53891.2 19.6500
53893.1 25.0948
53895.0 35.3182
53895.9 43.7807
53896.9 55.7731
53900.0 105.168
53901.6 87.7331
53903.1 58.2115
53904.4 42.1182
53905.6 31.9340
53906.8 25.4781
53908.0 21.2813
53910.5 16.3774
53913.0 13.8188
53915.4 12.3263
53917.9 11.3938
53922.8 10.3398
53927.7 9.79242
53932.6 9.47534
53937.5 9.27558
53942.4 9.14264
53952.2 8.98254
53962.0 8.89426
53981.6 8.80642
54001.2 8.76643
54020.9 8.74528
54060.1 8.72508
54138.6 8.71142
54217.1 8.70643
54531.0 8.69697
55158.9 8.67977
56414.6 8.64107
57670.3 8.59677
58926.0 8.54434
60181.7 8.47841
61437.5 8.38775
62065.3 8.32575
62693.2 8.24425
63007.1 8.19240
63321.0 8.12975
63478.0 8.09319
63635.0 8.05239
63791.9 8.00780
63870.4 7.99005
63909.7 8.00734
63929.3 8.11585
63934.2 8.22619
63939.1 8.51744
63941.6 8.88527
63944.0 9.77018
63945.2 10.7743
63946.5 12.8483
63947.1 14.8578
63947.7 18.2163
63948.3 24.3319
63948.9 36.0779
63949.5 52.8915
63950.0 64.2256
63950.6 52.9186
63951.1 36.0992
63951.6 26.2392
63952.1 20.2767
63952.6 16.6703
63953.0 14.4255
63954.0 11.8446
63955.0 10.5402
63956.9 9.31868
63958.9 8.79288
63962.8 8.35845
63966.7 8.18797
63974.4 8.05548
63982.2 8.00465
64013.4 7.94458
64075.6 7.90722
64200.1 7.84960
64324.7 7.78693
64449.2 7.71518
64698.2 7.53299
64947.3 7.26917
65071.8 7.08684
65196.3 6.85104
65320.8 6.53408
65445.3 6.08556
65569.9 5.40395
65632.1 4.91276
65694.4 4.25651
65756.6 3.34778
65787.8 2.75958
65818.9 2.06110
65850.0 1.25980
65881.2 0.467728
65888.9 0.315192
65896.7 0.208838
65904.5 0.173976
65912.3 0.247795
65920.1 0.484314
65927.8 0.961423
65935.6 1.78963
65943.4 3.12079
65949.2 4.56429
65955.1 6.49038
65966.7 12.1413
65990.0 29.3281
66001.7 36.3626
66013.4 39.3168
66036.7 36.4768
66053.9 32.3133
66071.0 28.5891
66088.2 25.6019
66105.4 23.2638
66139.7 19.9590
66174.0 17.7995
66208.3 16.3032
66242.7 15.2152
66311.3 13.7536
66380.0 12.8320
66448.6 12.2295
66483.0 12.0347
66517.3 11.9681
66534.5 12.0623
66543.0 12.1947
66551.6 12.4541
66560.2 12.9955
66564.5 13.4951
66568.8 14.3157
66573.1 15.7845
66575.2 16.9918
66577.4 18.7662
66579.5 21.5334
66581.6 26.0712
66583.8 34.0910
66585.9 48.7271
66590.0 88.7759
66592.0 75.2591
66594.1 51.2939
66595.9 36.9123
66597.7 28.3465
66599.5 23.1932
66601.3 19.9674
66604.9 16.3545
66608.5 14.5344
66612.1 13.4958
66615.6 12.8528
66622.8 12.1268
66630.0 11.7444
66637.2 11.5141
66651.6 11.2513
66666.0 11.1009
66680.4 10.9976
66709.1 10.8518
66766.6 10.6503
66824.1 10.4963
66939.2 10.2561
67054.2 10.0718
67284.3 9.80395
67514.3 9.61747
67744.4 9.47962
67974.4 9.37318
68434.5 9.21845
68894.6 9.10975
69354.8 9.02672
69814.9 8.95522
70044.9 8.91627
70102.4 8.90630
70160.0 8.90313
70188.7 8.91598
70217.5 8.97909
70231.8 9.08291
70239.0 9.18988
70246.2 9.38244
70253.4 9.76702
70257.0 10.1138
70260.6 10.6677
70264.2 11.6222
70267.8 13.4131
70269.6 14.9330
70271.4 17.1905
70273.2 20.6725
70275.0 26.0064
70277.5 37.3118
70280.0 46.0032
70282.5 39.8904
70285.0 28.9556
70287.0 22.9530
70288.9 19.0527
70290.8 16.5023
70292.8 14.7859
70296.6 12.7295
70300.5 11.6056
70304.4 10.9267
70308.2 10.4872
70315.9 9.96809
70323.7 9.68222
70331.4 9.50690
70346.8 9.30855
70362.3 9.20258
70377.7 9.13793
70408.6 9.06412
70439.5 9.02331
70470.4 8.99723
70532.2 8.96502
70655.8 8.93037
70779.4 8.90918
71026.6 8.87962
71273.7 8.85683
72262.4 8.78908
74239.8 8.69665
76217.1 8.63023
77205.8 8.60648
77453.0 8.60396
77700.2 8.60742
77823.7 8.61607
77885.5 8.62520
77947.3 8.64166
78009.1 8.67514
78040.0 8.70667
78070.9 8.76107
78101.8 8.86897
78117.3 8.96930
78132.7 9.14038
78148.2 9.47293
78155.9 9.77426
78163.6 10.2707
78171.3 11.1820
78175.2 11.9531
78179.1 13.1347
78182.9 15.0715
78186.8 18.5352
78188.7 21.3540
78190.6 25.4429
78192.6 31.5266
78194.5 40.6368
78200.0 75.4739
78201.4 73.1545
78202.8 64.3314
78205.5 43.4556
78207.6 32.2342
78209.7 25.0505
78211.8 20.4648
78213.9 17.4520
78218.1 13.9569
78222.3 12.1265
78226.5 11.0656
78230.7 10.4021
78239.1 9.65656
78247.5 9.27346
78255.9 9.05301
78272.7 8.82489
78289.5 8.71717
78306.3 8.65893
78339.9 8.60256
78373.5 8.57794
78407.1 8.56543
78474.3 8.55404
78608.7 8.54657
78743.1 8.54330
79280.7 8.53301
79818.3 8.52426
79952.7 8.52423
80087.1 8.52932
80154.3 8.53862
80221.5 8.56642
80255.1 8.60462
80271.9 8.64192
80288.7 8.70820
80305.5 8.84356
80313.9 8.97174
80322.3 9.19251
80330.7 9.62223
80334.9 10.0085
80339.1 10.6364
